Data from FlareLab_AbsoluteSpectrum_26052025_AbsoluteIrradiance_13-14-57-397.txt Node
Date: Mon May 26 13:14:57 BST 2025
User: adleo
Spectrometer: MAYP116268
Trigger mode: 0
Integration Time (sec): 1.000000E0
Scans to average: 1
Electric dark correction enabled: true
Nonlinearity correction enabled: true
Boxcar width: 1
XAxis mode: Wavelengths
Number of Pixels in Spectrum: 2068
>>>>>Begin Spectral Data<<<<<
179.565	-0
179.642	0
179.718	0
179.795	0
179.871	0
179.948	-0
180.024	0
180.101	0
180.177	0
180.254	0
180.33	-0
180.407	0
180.483	0
180.56	0
180.636	0
180.712	0
180.789	0
180.865	0
180.942	0
181.018	0
181.095	0
181.171	0
181.248	0
181.324	0
181.4	0
181.477	0
181.553	0
181.63	0
181.706	0
181.782	0
181.859	0
181.935	0
182.011	0
182.088	0
182.164	0
182.24	0
182.317	0
182.393	0
182.469	0
182.546	0
182.622	0
182.698	0
182.775	0
182.851	0
182.927	0
183.003	0
183.08	0
183.156	0
183.232	0
183.308	0
183.385	0
183.461	0
183.537	0
183.613	0
183.69	0
183.766	0
183.842	0
183.918	0
183.995	0
184.071	0
184.147	0
184.223	0
184.299	0
184.375	0
184.452	0
184.528	0
184.604	0
184.68	0
184.756	0
184.832	0
184.908	0
184.985	0
185.061	0
185.137	0
185.213	0
185.289	0
185.365	0
185.441	0
185.517	0
185.593	0
185.669	0
185.745	0
185.822	0
185.898	0
185.974	0
186.05	0
186.126	0
186.202	0
186.278	0
186.354	0
186.43	0
186.506	0
186.582	0
186.658	0
186.734	0
186.81	0
186.886	0
186.962	0
187.038	0
187.114	0
187.19	0
187.266	0
187.341	0
187.417	0
187.493	0
187.569	0
187.645	0
187.721	0
187.797	0
187.873	0
187.949	0
188.025	0
188.101	0
188.176	0
188.252	0
188.328	0
188.404	0
188.48	0
188.556	0
188.632	0
188.707	0
188.783	0
188.859	0
188.935	0
189.011	0
189.086	0
189.162	0
189.238	0
189.314	0
189.39	0
189.465	0
189.541	0
189.617	0
189.693	0
189.768	0
189.844	0
189.92	0
189.996	0
190.071	0
190.147	0
190.223	0
190.298	0
190.374	0
190.45	0
190.526	0
190.601	0
190.677	0
190.753	0
190.828	0
190.904	0
190.98	0
191.055	0
191.131	0
191.207	0
191.282	0
191.358	0
191.433	0
191.509	0
191.585	0
191.66	0
191.736	0
191.811	0
191.887	0
191.963	0
192.038	0
192.114	0
192.189	0
192.265	0
192.34	0
192.416	0
192.491	0
192.567	0
192.642	0
192.718	0
192.793	0
192.869	0
192.944	0
193.02	0
193.095	0
193.171	0
193.246	0
193.322	0
193.397	0
193.473	0
193.548	0
193.624	0
193.699	0
193.775	0
193.85	0
193.925	0
194.001	0
194.076	0
194.152	0
194.227	0
194.302	0
194.378	0
194.453	0
194.529	0
194.604	0
194.679	0
194.755	0
194.83	0
194.905	0
194.981	0
195.056	0
195.131	0
195.207	0
195.282	0
195.357	0
195.433	0
195.508	0
195.583	0
195.659	0
195.734	0
195.809	0
195.884	0
195.96	0
196.035	0
196.11	0
196.185	0
196.261	0
196.336	0
196.411	0
196.486	0
196.561	0
196.637	0
196.712	0
196.787	0
196.862	0
196.937	0
197.013	0
197.088	0
197.163	0
197.238	0
197.313	0
197.388	0
197.464	0
197.539	0
197.614	0
197.689	0
197.764	0
197.839	0
197.914	0
197.989	0
198.065	0
198.14	0
198.215	0
198.29	0
198.365	0
198.44	0
198.515	0
198.59	0
198.665	0
198.74	0
198.815	0
198.89	0
198.965	0
199.04	0
199.115	0
199.19	0
199.265	0
199.34	0
199.415	0
199.49	0
199.565	0
199.64	0
199.715	0
199.79	0
199.865	0
199.94	0
200.015	0
200.09	0
200.165	0
200.24	0
200.315	0
200.39	0
200.464	0
200.539	0
200.614	0
200.689	0
200.764	0
200.839	0
200.914	0
200.989	0
201.063	0
201.138	0
201.213	0
201.288	0
201.363	0
201.438	0
201.512	0
201.587	0
201.662	0
201.737	0
201.812	0
201.886	0
201.961	0
202.036	0
202.111	0
202.186	0
202.26	0
202.335	0
202.41	0
202.485	0
202.559	0
202.634	0
202.709	0
202.784	0
202.858	0
202.933	0
203.008	0
203.082	0
203.157	0
203.232	0
203.306	0
203.381	0
203.456	0
203.53	0
203.605	0
203.68	0
203.754	0
203.829	0
203.904	0
203.978	0
204.053	0
204.127	0
204.202	0
204.277	0
204.351	0
204.426	0
204.5	0
204.575	0
204.65	0
204.724	0
204.799	0
204.873	0
204.948	0
205.022	0
205.097	0
205.171	0
205.246	0
205.32	0
205.395	0
205.469	0
205.544	0
205.618	0
205.693	0
205.767	0
205.842	0
205.916	0
205.991	0
206.065	0
206.14	0
206.214	0
206.289	0
206.363	0
206.438	0
206.512	0
206.586	0
206.661	0
206.735	0
206.81	0
206.884	0
206.958	0
207.033	0
207.107	0
207.181	0
207.256	0
207.33	0
207.405	0
207.479	0
207.553	0
207.628	0
207.702	0
207.776	0
207.851	0
207.925	0
207.999	0
208.073	0
208.148	0
208.222	0
208.296	0
208.371	0
208.445	0
208.519	0
208.593	0
208.668	0
208.742	0
208.816	0
208.89	0
208.965	0
209.039	0
209.113	0
209.187	0
209.261	0
209.336	0
209.41	0
209.484	0
209.558	0
209.632	0
209.707	0
209.781	0
209.855	0
209.929	0
210.003	0.35
210.077	0.31
210.151	0.32
210.226	0.34
210.3	0.31
210.374	0.35
210.448	0.33
210.522	0.33
210.596	0.34
210.67	0.29
210.744	0.36
210.818	0.39
210.892	0.28
210.966	0.37
211.041	0.31
211.115	0.38
211.189	0.35
211.263	0.33
211.337	0.36
211.411	0.37
211.485	0.29
211.559	0.38
211.633	0.32
211.707	0.38
211.781	0.32
211.855	0.38
211.929	0.33
212.003	0.35
212.077	0.38
212.151	0.34
212.225	0.38
212.299	0.35
212.373	0.37
212.447	0.37
212.52	0.31
212.594	0.39
212.668	0.34
212.742	0.39
212.816	0.32
212.89	0.35
212.964	0.38
213.038	0.33
213.112	0.4
213.186	0.37
213.26	0.34
213.333	0.38
213.407	0.37
213.481	0.38
213.555	0.36
213.629	0.39
213.703	0.35
213.777	0.37
213.85	0.37
213.924	0.36
213.998	0.38
214.072	0.38
214.146	0.35
214.219	0.38
214.293	0.38
214.367	0.37
214.441	0.39
214.515	0.34
214.588	0.42
214.662	0.33
214.736	0.41
214.81	0.37
214.883	0.4
214.957	0.35
215.031	0.4
215.105	0.37
215.178	0.38
215.252	0.37
215.326	0.38
215.4	0.39
215.473	0.38
215.547	0.36
215.621	0.37
215.694	0.38
215.768	0.38
215.842	0.42
215.915	0.38
215.989	0.38
216.063	0.38
216.136	0.4
216.21	0.4
216.284	0.39
216.357	0.4
216.431	0.38
216.504	0.41
216.578	0.4
216.652	0.37
216.725	0.42
216.799	0.39
216.873	0.39
216.946	0.41
217.02	0.39
217.093	0.41
217.167	0.41
217.24	0.4
217.314	0.37
217.387	0.43
217.461	0.41
217.535	0.38
217.608	0.43
217.682	0.39
217.755	0.42
217.829	0.38
217.902	0.42
217.976	0.39
218.049	0.41
218.123	0.42
218.196	0.42
218.27	0.39
218.343	0.43
218.417	0.4
218.49	0.41
218.563	0.43
218.637	0.42
218.71	0.42
218.784	0.42
218.857	0.42
218.931	0.42
219.004	0.43
219.077	0.43
219.151	0.42
219.224	0.44
219.298	0.42
219.371	0.43
219.444	0.41
219.518	0.42
219.591	0.43
219.665	0.43
219.738	0.44
219.811	0.41
219.885	0.45
219.958	0.44
220.031	0.44
220.105	0.42
220.178	0.46
220.251	0.44
220.325	0.47
220.398	0.4
220.471	0.45
220.544	0.46
220.618	0.44
220.691	0.42
220.764	0.47
220.838	0.43
220.911	0.44
220.984	0.46
221.057	0.44
221.131	0.46
221.204	0.47
221.277	0.44
221.35	0.45
221.424	0.45
221.497	0.46
221.57	0.45
221.643	0.46
221.716	0.45
221.79	0.47
221.863	0.46
221.936	0.48
222.009	0.46
222.082	0.44
222.155	0.49
222.229	0.45
222.302	0.48
222.375	0.45
222.448	0.46
222.521	0.5
222.594	0.46
222.667	0.48
222.74	0.48
222.814	0.46
222.887	0.5
222.96	0.46
223.033	0.47
223.106	0.48
223.179	0.47
223.252	0.48
223.325	0.48
223.398	0.5
223.471	0.47
223.544	0.49
223.617	0.48
223.69	0.48
223.763	0.47
223.837	0.5
223.91	0.47
223.983	0.49
224.056	0.5
224.129	0.48
224.202	0.49
224.275	0.5
224.348	0.48
224.42	0.5
224.493	0.5
224.566	0.49
224.639	0.48
224.712	0.51
224.785	0.5
224.858	0.48
224.931	0.5
225.004	0.49
225.077	0.51
225.15	0.5
225.223	0.51
225.296	0.49
225.369	0.5
225.442	0.5
225.514	0.5
225.587	0.52
225.66	0.51
225.733	0.51
225.806	0.5
225.879	0.53
225.952	0.52
226.025	0.47
226.097	0.54
226.17	0.51
226.243	0.51
226.316	0.52
226.389	0.51
226.461	0.52
226.534	0.52
226.607	0.52
226.68	0.54
226.753	0.53
226.825	0.5
226.898	0.53
226.971	0.54
227.044	0.51
227.117	0.53
227.189	0.52
227.262	0.53
227.335	0.53
227.407	0.52
227.48	0.53
227.553	0.54
227.626	0.53
227.698	0.55
227.771	0.54
227.844	0.56
227.916	0.55
227.989	0.56
228.062	0.55
228.134	0.57
228.207	0.57
228.28	0.56
228.352	0.56
228.425	0.57
228.498	0.58
228.57	0.58
228.643	0.58
228.716	0.6
228.788	0.61
228.861	0.58
228.934	0.61
229.006	0.62
229.079	0.61
229.151	0.63
229.224	0.61
229.296	0.66
229.369	0.62
229.442	0.64
229.514	0.64
229.587	0.64
229.659	0.62
229.732	0.65
229.804	0.64
229.877	0.62
229.949	0.64
230.022	0.64
230.094	0.58
230.167	0.62
230.239	0.63
230.312	0.59
230.384	0.61
230.457	0.59
230.529	0.61
230.602	0.58
230.674	0.6
230.747	0.57
230.819	0.61
230.892	0.57
230.964	0.6
231.037	0.6
231.109	0.57
231.181	0.59
231.254	0.59
231.326	0.59
231.399	0.58
231.471	0.59
231.544	0.57
231.616	0.61
231.688	0.57
231.761	0.59
231.833	0.58
231.905	0.59
231.978	0.59
232.05	0.59
232.122	0.57
232.195	0.59
232.267	0.6
232.339	0.59
232.412	0.57
232.484	0.6
232.556	0.58
232.629	0.58
232.701	0.57
232.773	0.59
232.846	0.57
232.918	0.58
232.99	0.57
233.062	0.59
233.135	0.58
233.207	0.58
233.279	0.61
233.351	0.56
233.424	0.59
233.496	0.6
233.568	0.6
233.64	0.58
233.713	0.6
233.785	0.59
233.857	0.6
233.929	0.6
234.001	0.59
234.074	0.59
234.146	0.6
234.218	0.61
234.29	0.58
234.362	0.61
234.434	0.59
234.507	0.6
234.579	0.6
234.651	0.63
234.723	0.58
234.795	0.59
234.867	0.6
234.939	0.58
235.012	0.6
235.084	0.61
235.156	0.6
235.228	0.61
235.3	0.61
235.372	0.6
235.444	0.6
235.516	0.6
235.588	0.61
235.66	0.6
235.732	0.62
235.804	0.59
235.876	0.61
235.948	0.62
236.02	0.61
236.092	0.61
236.164	0.61
236.236	0.62
236.308	0.61
236.38	0.61
236.452	0.64
236.524	0.57
236.596	0.64
236.668	0.6
236.74	0.62
236.812	0.62
236.884	0.62
236.956	0.62
237.028	0.62
237.1	0.62
237.172	0.62
237.244	0.64
237.316	0.6
237.388	0.63
237.46	0.63
237.532	0.62
237.604	0.62
237.675	0.62
237.747	0.63
237.819	0.64
237.891	0.62
237.963	0.63
238.035	0.62
238.107	0.64
238.178	0.63
238.25	0.62
238.322	0.66
238.394	0.62
238.466	0.63
238.538	0.65
238.609	0.63
238.681	0.64
238.753	0.63
238.825	0.65
238.897	0.61
238.968	0.67
239.04	0.61
239.112	0.65
239.184	0.64
239.255	0.64
239.327	0.65
239.399	0.65
239.471	0.65
239.542	0.63
239.614	0.66
239.686	0.63
239.758	0.66
239.829	0.64
239.901	0.66
239.973	0.64
240.044	0.65
240.116	0.65
240.188	0.66
240.259	0.66
240.331	0.65
240.403	0.67
240.474	0.65
240.546	0.65
240.618	0.66
240.689	0.67
240.761	0.67
240.833	0.67
240.904	0.67
240.976	0.66
241.048	0.66
241.119	0.67
241.191	0.67
241.262	0.68
241.334	0.67
241.405	0.68
241.477	0.67
241.549	0.67
241.62	0.69
241.692	0.68
241.763	0.68
241.835	0.67
241.906	0.7
241.978	0.67
242.049	0.69
242.121	0.69
242.192	0.7
242.264	0.7
242.335	0.7
242.407	0.7
242.478	0.69
242.55	0.7
242.621	0.69
242.693	0.72
242.764	0.7
242.836	0.71
242.907	0.7
242.979	0.72
243.05	0.72
243.122	0.71
243.193	0.72
243.264	0.71
243.336	0.71
243.407	0.72
243.479	0.71
243.55	0.73
243.622	0.72
243.693	0.72
243.764	0.72
243.836	0.72
243.907	0.71
243.978	0.72
244.05	0.72
244.121	0.71
244.192	0.71
244.264	0.72
244.335	0.72
244.407	0.72
244.478	0.71
244.549	0.73
244.62	0.71
244.692	0.74
244.763	0.72
244.834	0.74
244.906	0.72
244.977	0.74
245.048	0.72
245.119	0.74
245.191	0.72
245.262	0.72
245.333	0.74
245.405	0.73
245.476	0.73
245.547	0.73
245.618	0.73
245.689	0.74
245.761	0.73
245.832	0.75
245.903	0.74
245.974	0.76
246.045	0.74
246.117	0.75
246.188	0.75
246.259	0.75
246.33	0.76
246.401	0.75
246.473	0.76
246.544	0.77
246.615	0.77
246.686	0.77
246.757	0.78
246.828	0.77
246.899	0.8
246.97	0.79
247.042	0.79
247.113	0.8
247.184	0.81
247.255	0.8
247.326	0.8
247.397	0.82
247.468	0.8
247.539	0.83
247.61	0.8
247.681	0.84
247.752	0.82
247.823	0.82
247.894	0.8
247.965	0.83
248.037	0.81
248.108	0.82
248.179	0.81
248.25	0.81
248.321	0.81
248.392	0.81
248.463	0.79
248.534	0.81
248.605	0.79
248.675	0.82
248.746	0.8
248.817	0.81
248.888	0.8
248.959	0.8
249.03	0.8
249.101	0.8
249.172	0.8
249.243	0.8
249.314	0.79
249.385	0.79
249.456	0.81
249.527	0.8
249.598	0.8
249.669	0.81
249.739	0.79
249.81	0.8
249.881	0.8
249.952	0.8
250.023	0.79
250.094	0.8
250.165	0.81
250.235	0.8
250.306	0.79
250.377	0.8
250.448	0.78
250.519	0.8
250.59	0.81
250.66	0.8
250.731	0.81
250.802	0.81
250.873	0.8
250.944	0.82
251.014	0.8
251.085	0.81
251.156	0.81
251.227	0.82
251.297	0.79
251.368	0.83
251.439	0.82
251.51	0.83
251.58	0.82
251.651	0.83
251.722	0.83
251.792	0.8
251.863	0.84
251.934	0.82
252.005	0.82
252.075	0.84
252.146	0.82
252.217	0.83
252.287	0.85
252.358	0.84
252.429	0.83
252.499	0.86
252.57	0.85
252.641	0.86
252.711	0.85
252.782	0.85
252.852	0.86
252.923	0.85
252.994	0.85
253.064	0.86
253.135	0.84
253.205	0.88
253.276	0.85
253.347	0.87
253.417	0.86
253.488	0.88
253.558	0.85
253.629	0.87
253.699	0.87
253.77	0.87
253.841	0.87
253.911	0.87
253.982	0.87
254.052	0.88
254.123	0.87
254.193	0.87
254.264	0.88
254.334	0.88
254.405	0.87
254.475	0.87
254.546	0.89
254.616	0.86
254.687	0.9
254.757	0.86
254.827	0.89
254.898	0.89
254.968	0.87
255.039	0.9
255.109	0.9
255.18	0.88
255.25	0.89
255.321	0.9
255.391	0.9
255.461	0.89
255.532	0.91
255.602	0.9
255.673	0.91
255.743	0.9
255.813	0.9
255.884	0.9
255.954	0.91
256.024	0.91
256.095	0.92
256.165	0.9
256.235	0.92
256.306	0.91
256.376	0.93
256.446	0.89
256.517	0.94
256.587	0.91
256.657	0.93
256.728	0.92
256.798	0.93
256.868	0.94
256.938	0.92
257.009	0.95
257.079	0.94
257.149	0.94
257.219	0.95
257.29	0.93
257.36	0.95
257.43	0.95
257.5	0.94
257.571	0.95
257.641	0.96
257.711	0.96
257.781	0.96
257.852	0.95
257.922	0.96
257.992	0.96
258.062	0.98
258.132	0.95
258.202	0.97
258.273	0.97
258.343	0.97
258.413	0.98
258.483	0.98
258.553	0.97
258.623	0.99
258.693	0.98
258.764	0.98
258.834	0.98
258.904	1
258.974	0.99
259.044	0.99
259.114	1
259.184	0.99
259.254	1.01
259.324	1
259.394	1.01
259.464	1.02
259.535	1.03
259.605	1.01
259.675	1.03
259.745	1.02
259.815	1.03
259.885	1.04
259.955	1.05
260.025	1.05
260.095	1.06
260.165	1.05
260.235	1.07
260.305	1.06
260.375	1.08
260.445	1.06
260.515	1.07
260.585	1.1
260.655	1.04
260.725	1.1
260.795	1.07
260.865	1.08
260.934	1.06
261.004	1.08
261.074	1.08
261.144	1.07
261.214	1.08
261.284	1.08
261.354	1.1
261.424	1.08
261.494	1.09
261.564	1.07
261.634	1.1
261.703	1.09
261.773	1.09
261.843	1.09
261.913	1.07
261.983	1.1
262.053	1.11
262.123	1.09
262.192	1.1
262.262	1.1
262.332	1.09
262.402	1.11
262.472	1.11
262.541	1.1
262.611	1.11
262.681	1.12
262.751	1.1
262.821	1.11
262.89	1.12
262.96	1.11
263.03	1.13
263.1	1.12
263.169	1.12
263.239	1.15
263.309	1.13
263.379	1.15
263.448	1.15
263.518	1.15
263.588	1.14
263.657	1.15
263.727	1.15
263.797	1.15
263.867	1.17
263.936	1.16
264.006	1.16
264.076	1.17
264.145	1.18
264.215	1.16
264.285	1.18
264.354	1.17
264.424	1.16
264.494	1.19
264.563	1.18
264.633	1.19
264.702	1.18
264.772	1.18
264.842	1.18
264.911	1.19
264.981	1.18
265.05	1.21
265.12	1.19
265.19	1.2
265.259	1.21
265.329	1.21
265.398	1.21
265.468	1.22
265.537	1.22
265.607	1.22
265.676	1.23
265.746	1.24
265.815	1.24
265.885	1.22
265.955	1.24
266.024	1.23
266.094	1.27
266.163	1.23
266.232	1.27
266.302	1.25
266.371	1.27
266.441	1.26
266.51	1.26
266.58	1.27
266.649	1.28
266.719	1.27
266.788	1.29
266.858	1.28
266.927	1.28
266.996	1.3
267.066	1.29
267.135	1.29
267.205	1.29
267.274	1.3
267.343	1.3
267.413	1.3
267.482	1.31
267.552	1.31
267.621	1.33
267.69	1.33
267.76	1.32
267.829	1.34
267.898	1.32
267.968	1.34
268.037	1.33
268.106	1.35
268.176	1.32
268.245	1.35
268.314	1.35
268.384	1.36
268.453	1.36
268.522	1.36
268.592	1.37
268.661	1.37
268.73	1.37
268.799	1.36
268.869	1.38
268.938	1.38
269.007	1.4
269.076	1.39
269.146	1.39
269.215	1.39
269.284	1.4
269.353	1.4
269.422	1.4
269.492	1.42
269.561	1.4
269.63	1.43
269.699	1.42
269.768	1.43
269.838	1.43
269.907	1.44
269.976	1.42
270.045	1.45
270.114	1.44
270.183	1.43
270.253	1.45
270.322	1.44
270.391	1.45
270.46	1.45
270.529	1.45
270.598	1.46
270.667	1.47
270.736	1.48
270.806	1.46
270.875	1.48
270.944	1.48
271.013	1.49
271.082	1.5
271.151	1.5
271.22	1.49
271.289	1.49
271.358	1.5
271.427	1.49
271.496	1.51
271.565	1.52
271.634	1.53
271.703	1.52
271.772	1.53
271.841	1.52
271.91	1.55
271.979	1.54
272.048	1.54
272.117	1.55
272.186	1.55
272.255	1.55
272.324	1.57
272.393	1.56
272.462	1.58
272.531	1.57
272.6	1.58
272.669	1.57
272.738	1.58
272.807	1.57
272.876	1.59
272.945	1.59
273.013	1.59
273.082	1.61
273.151	1.61
273.22	1.61
273.289	1.61
273.358	1.63
273.427	1.63
273.496	1.62
273.564	1.65
273.633	1.62
273.702	1.65
273.771	1.63
273.84	1.64
273.909	1.64
273.977	1.67
274.046	1.65
274.115	1.67
274.184	1.66
274.253	1.68
274.322	1.68
274.39	1.7
274.459	1.67
274.528	1.69
274.597	1.69
274.665	1.69
274.734	1.71
274.803	1.68
274.872	1.72
274.94	1.7
275.009	1.72
275.078	1.72
275.147	1.72
275.215	1.73
275.284	1.73
275.353	1.73
275.421	1.74
275.49	1.74
275.559	1.74
275.627	1.77
275.696	1.7
275.765	1.78
275.833	1.76
275.902	1.76
275.971	1.76
276.039	1.77
276.108	1.8
276.177	1.76
276.245	1.79
276.314	1.8
276.383	1.79
276.451	1.8
276.52	1.81
276.588	1.8
276.657	1.82
276.725	1.81
276.794	1.82
276.863	1.83
276.931	1.83
277	1.83
277.068	1.83
277.137	1.85
277.205	1.85
277.274	1.84
277.342	1.82
277.411	1.85
277.48	1.86
277.548	1.85
277.617	1.88
277.685	1.86
277.754	1.9
277.822	1.87
277.89	1.89
277.959	1.89
278.027	1.87
278.096	1.9
278.164	1.89
278.233	1.91
278.301	1.91
278.37	1.93
278.438	1.93
278.507	1.95
278.575	1.91
278.643	1.93
278.712	1.94
278.78	1.95
278.849	1.92
278.917	1.96
278.985	1.95
279.054	1.96
279.122	1.97
279.191	1.95
279.259	1.97
279.327	1.97
279.396	1.97
279.464	1.97
279.532	1.99
279.601	1.98
279.669	2
279.737	2
279.806	2
279.874	2
279.942	2.02
280.011	2
280.079	2
280.147	2.04
280.215	2.02
280.284	2.01
280.352	2.05
280.42	2.04
280.488	2.07
280.557	2.04
280.625	2.06
280.693	2.08
280.761	2.06
280.83	2.07
280.898	2.06
280.966	2.09
281.034	2.09
281.102	2.08
281.171	2.1
281.239	2.1
281.307	2.09
281.375	2.12
281.443	2.1
281.512	2.13
281.58	2.1
281.648	2.13
281.716	2.13
281.784	2.15
281.852	2.13
281.92	2.15
281.989	2.15
282.057	2.18
282.125	2.13
282.193	2.15
282.261	2.14
282.329	2.18
282.397	2.18
282.465	2.17
282.533	2.17
282.601	2.19
282.67	2.17
282.738	2.22
282.806	2.17
282.874	2.23
282.942	2.21
283.01	2.21
283.078	2.2
283.146	2.23
283.214	2.22
283.282	2.22
283.35	2.24
283.418	2.26
283.486	2.25
283.554	2.25
283.622	2.25
283.69	2.26
283.758	2.26
283.826	2.28
283.894	2.26
283.962	2.29
284.03	2.27
284.098	2.28
284.165	2.28
284.233	2.28
284.301	2.31
284.369	2.3
284.437	2.31
284.505	2.31
284.573	2.32
284.641	2.31
284.709	2.35
284.777	2.34
284.845	2.34
284.912	2.34
284.98	2.35
285.048	2.36
285.116	2.35
285.184	2.36
285.252	2.36
285.319	2.39
285.387	2.37
285.455	2.4
285.523	2.38
285.591	2.39
285.659	2.4
285.726	2.41
285.794	2.41
285.862	2.42
285.93	2.43
285.997	2.42
286.065	2.42
286.133	2.43
286.201	2.42
286.269	2.45
286.336	2.45
286.404	2.42
286.472	2.49
286.539	2.46
286.607	2.46
286.675	2.48
286.743	2.46
286.81	2.47
286.878	2.49
286.946	2.47
287.013	2.49
287.081	2.48
287.149	2.48
287.216	2.5
287.284	2.49
287.352	2.5
287.419	2.5
287.487	2.51
287.555	2.51
287.622	2.52
287.69	2.52
287.758	2.53
287.825	2.54
287.893	2.54
287.96	2.54
288.028	2.55
288.096	2.55
288.163	2.54
288.231	2.56
288.298	2.59
288.366	2.56
288.433	2.57
288.501	2.58
288.569	2.58
288.636	2.6
288.704	2.59
288.771	2.6
288.839	2.58
288.906	2.61
288.974	2.6
289.041	2.61
289.109	2.64
289.176	2.63
289.244	2.63
289.311	2.63
289.379	2.64
289.446	2.64
289.514	2.67
289.581	2.61
289.649	2.64
289.716	2.67
289.783	2.68
289.851	2.66
289.918	2.68
289.986	2.67
290.053	2.69
290.121	2.69
290.188	2.67
290.255	2.69
290.323	2.7
290.39	2.69
290.458	2.7
290.525	2.71
290.592	2.73
290.66	2.71
290.727	2.71
290.794	2.73
290.862	2.74
290.929	2.73
290.996	2.74
291.064	2.74
291.131	2.74
291.198	2.76
291.266	2.75
291.333	2.75
291.4	2.77
291.468	2.78
291.535	2.78
291.602	2.79
291.669	2.81
291.737	2.8
291.804	2.79
291.871	2.8
291.938	2.81
292.006	2.82
292.073	2.83
292.14	2.8
292.207	2.82
292.275	2.82
292.342	2.81
292.409	2.82
292.476	2.83
292.543	2.84
292.611	2.85
292.678	2.81
292.745	2.84
292.812	2.82
292.879	2.84
292.946	2.86
293.014	2.84
293.081	2.86
293.148	2.88
293.215	2.88
293.282	2.88
293.349	2.86
293.416	2.88
293.484	2.88
293.551	2.89
293.618	2.91
293.685	2.9
293.752	2.9
293.819	2.91
293.886	2.92
293.953	2.94
294.02	2.91
294.087	2.93
294.154	2.92
294.221	2.92
294.288	2.94
294.356	2.9
294.423	2.93
294.49	2.93
294.557	2.95
294.624	2.96
294.691	2.96
294.758	2.95
294.825	2.96
294.892	2.96
294.959	2.98
295.026	2.96
295.093	2.95
295.16	2.98
295.226	2.97
295.293	2.97
295.36	2.99
295.427	3
295.494	3.01
295.561	3
295.628	3.02
295.695	3.02
295.762	3.02
295.829	3.03
295.896	3.05
295.963	3.03
296.03	3.05
296.096	3.05
296.163	3.05
296.23	3.08
296.297	3.06
296.364	3.07
296.431	3.08
296.498	3.06
296.564	3.07
296.631	3.08
296.698	3.08
296.765	3.1
296.832	3.09
296.899	3.1
296.965	3.1
297.032	3.13
297.099	3.12
297.166	3.11
297.233	3.1
297.299	3.13
297.366	3.14
297.433	3.15
297.5	3.13
297.566	3.14
297.633	3.13
297.7	3.16
297.767	3.16
297.833	3.18
297.9	3.16
297.967	3.18
298.033	3.15
298.1	3.17
298.167	3.17
298.234	3.18
298.3	3.19
298.367	3.2
298.434	3.2
298.5	3.2
298.567	3.2
298.634	3.22
298.7	3.2
298.767	3.22
298.834	3.24
298.9	3.2
298.967	3.22
299.033	3.25
299.1	3.22
299.167	3.22
299.233	3.24
299.3	3.25
299.366	3.23
299.433	3.25
299.5	3.26
299.566	3.26
299.633	3.25
299.699	3.25
299.766	3.26
299.832	3.24
299.899	3.25
299.965	3.24
300.032	3.24
300.099	3.24
300.165	3.25
300.232	3.24
300.298	3.21
300.365	3.22
300.431	3.23
300.498	3.23
300.564	3.21
300.631	3.23
300.697	3.21
300.763	3.22
300.83	3.22
300.896	3.2
300.963	3.22
301.029	3.2
301.096	3.21
301.162	3.2
301.229	3.2
301.295	3.18
301.361	3.19
301.428	3.22
301.494	3.18
301.561	3.2
301.627	3.17
301.693	3.18
301.76	3.18
301.826	3.2
301.892	3.19
301.959	3.19
302.025	3.18
302.092	3.17
302.158	3.19
302.224	3.19
302.291	3.19
302.357	3.17
302.423	3.17
302.49	3.18
302.556	3.17
302.622	3.16
302.688	3.17
302.755	3.15
302.821	3.16
302.887	3.15
302.954	3.18
303.02	3.17
303.086	3.17
303.152	3.19
303.219	3.16
303.285	3.16
303.351	3.17
303.417	3.17
303.483	3.17
303.55	3.17
303.616	3.16
303.682	3.15
303.748	3.17
303.815	3.17
303.881	3.16
303.947	3.14
304.013	3.16
304.079	3.17
304.145	3.15
304.212	3.16
304.278	3.15
304.344	3.17
304.41	3.15
304.476	3.15
304.542	3.15
304.608	3.14
304.674	3.15
304.741	3.16
304.807	3.14
304.873	3.15
304.939	3.16
305.005	3.16
305.071	3.15
305.137	3.16
305.203	3.16
305.269	3.13
305.335	3.15
305.401	3.16
305.467	3.14
305.533	3.17
305.599	3.17
305.666	3.19
305.732	3.16
305.798	3.15
305.864	3.19
305.93	3.16
305.996	3.16
306.062	3.18
306.128	3.19
306.194	3.17
306.259	3.18
306.325	3.17
306.391	3.17
306.457	3.17
306.523	3.17
306.589	3.16
306.655	3.17
306.721	3.19
306.787	3.17
306.853	3.17
306.919	3.16
306.985	3.17
307.051	3.18
307.117	3.16
307.183	3.17
307.248	3.18
307.314	3.16
307.38	3.18
307.446	3.19
307.512	3.18
307.578	3.19
307.644	3.19
307.709	3.18
307.775	3.19
307.841	3.19
307.907	3.2
307.973	3.19
308.039	3.17
308.104	3.19
308.17	3.19
308.236	3.2
308.302	3.19
308.368	3.18
308.433	3.2
308.499	3.2
308.565	3.19
308.631	3.2
308.696	3.19
308.762	3.18
308.828	3.19
308.894	3.21
308.959	3.21
309.025	3.21
309.091	3.22
309.156	3.19
309.222	3.22
309.288	3.22
309.354	3.21
309.419	3.22
309.485	3.23
309.551	3.22
309.616	3.23
309.682	3.24
309.748	3.23
309.813	3.22
309.879	3.22
309.945	3.24
310.01	3.26
310.076	3.22
310.141	3.24
310.207	3.22
310.273	3.25
310.338	3.26
310.404	3.25
310.469	3.26
310.535	3.27
310.601	3.28
310.666	3.27
310.732	3.27
310.797	3.26
310.863	3.26
310.928	3.26
310.994	3.29
311.059	3.28
311.125	3.26
311.191	3.27
311.256	3.28
311.322	3.26
311.387	3.28
311.453	3.29
311.518	3.29
311.584	3.27
311.649	3.27
311.715	3.27
311.78	3.27
311.846	3.25
311.911	3.31
311.976	3.29
312.042	3.28
312.107	3.08
312.173	3.3
312.238	3.28
312.304	3.31
312.369	3.3
312.434	3.3
312.5	3.3
312.565	3.29
312.631	3.28
312.696	3.31
312.761	3.31
312.827	3.31
312.892	3.29
312.958	3.31
313.023	3.31
313.088	3.33
313.154	3.33
313.219	3.31
313.284	3.31
313.35	3.33
313.415	3.33
313.48	3.33
313.546	3.31
313.611	3.33
313.676	3.33
313.741	3.32
313.807	3.35
313.872	3.34
313.937	3.31
314.003	3.34
314.068	3.36
314.133	3.34
314.198	3.34
314.264	3.36
314.329	3.37
314.394	3.33
314.459	3.33
314.525	3.33
314.59	3.35
314.655	3.34
314.72	3.35
314.785	3.35
314.851	3.37
314.916	3.35
314.981	3.37
315.046	3.36
315.111	3.36
315.176	3.36
315.242	3.39
315.307	3.37
315.372	3.38
315.437	3.37
315.502	3.39
315.567	3.4
315.632	3.39
315.698	3.39
315.763	3.4
315.828	3.37
315.893	3.36
315.958	3.37
316.023	3.37
316.088	3.38
316.153	3.39
316.218	3.35
316.283	3.4
316.348	3.41
316.413	3.4
316.479	3.47
316.544	3.41
316.609	3.45
316.674	3.49
316.739	3.49
316.804	3.49
316.869	3.5
316.934	3.55
316.999	3.54
317.064	3.56
317.129	3.59
317.194	3.59
317.259	3.64
317.324	3.64
317.389	3.7
317.454	3.69
317.518	3.71
317.583	3.72
317.648	3.73
317.713	3.75
317.778	3.77
317.843	3.79
317.908	3.82
317.973	3.86
318.038	3.89
318.103	3.88
318.168	3.93
318.233	3.94
318.297	3.96
318.362	4
318.427	4.02
318.492	4.05
318.557	4.07
318.622	4.11
318.687	4.12
318.751	4.16
318.816	4.16
318.881	4.19
318.946	4.24
319.011	4.26
319.075	4.33
319.14	4.35
319.205	4.39
319.27	4.37
319.335	4.42
319.399	4.44
319.464	4.49
319.529	4.5
319.594	4.52
319.658	4.55
319.723	4.53
319.788	4.51
319.853	4.54
319.917	4.55
319.982	4.57
320.047	4.56
320.112	4.51
320.176	4.54
320.241	4.52
320.306	4.56
320.37	4.55
320.435	4.6
320.5	4.58
320.564	4.56
320.629	4.59
320.694	4.55
320.758	4.61
320.823	4.6
320.888	4.56
320.952	4.56
321.017	4.59
321.082	4.59
321.146	4.62
321.211	4.62
321.275	4.6
321.34	4.58
321.405	4.58
321.469	4.64
321.534	4.66
321.598	4.6
321.663	4.63
321.727	4.59
321.792	4.59
321.857	4.63
321.921	4.63
321.986	4.63
322.05	4.62
322.115	4.66
322.179	4.62
322.244	4.67
322.308	4.61
322.373	4.63
322.437	4.67
322.502	4.64
322.566	4.6
322.631	4.62
322.695	4.67
322.76	4.7
322.824	4.61
322.889	4.63
322.953	4.62
323.018	4.64
323.082	4.62
323.146	4.63
323.211	4.67
323.275	4.68
323.34	4.67
323.404	4.67
323.468	4.67
323.533	4.67
323.597	4.68
323.662	4.68
323.726	4.68
323.79	4.67
323.855	4.65
323.919	4.6
323.983	4.72
324.048	4.68
324.112	4.6
324.177	4.65
324.241	4.63
324.305	4.63
324.37	4.68
324.434	4.71
324.498	4.64
324.562	4.67
324.627	4.36
324.691	4.47
324.755	5.58
324.82	15.4
324.884	-173.69
324.948	-0.06
325.012	2.21
325.077	-1.04
