Data from 20250704_background_MAYP1162681_11-02-04-812.txt Node
Date: Fri Jul 04 11:02:04 BST 2025
User: adleo
Spectrometer: MAYP116268
Trigger mode: 0
Integration Time (sec): 1.000000E0
Scans to average: 1
Electric dark correction enabled: true
Nonlinearity correction enabled: true
Boxcar width: 10
XAxis mode: Wavelengths
Number of Pixels in Spectrum: 2068
>>>>>Begin Spectral Data<<<<<
179.565	1235.85
179.642	1292.9
179.718	1337.87
179.795	1376.28
179.871	1409.16
179.948	1427.77
180.024	1451.11
180.101	1473.8
180.177	1487.07
180.254	1513.03
180.33	1535.95
180.407	1591.93
180.483	1689.89
180.56	1784.82
180.636	1867.67
180.712	1854.06
180.789	1862.53
180.865	1872.89
180.942	1883.2
181.018	1893.71
181.095	1907.55
181.171	1912.82
181.248	1916.06
181.324	1932.13
181.4	1939.83
181.477	1951.43
181.553	1966.27
181.63	1984.57
181.706	2000.46
181.782	2011.39
181.859	2009.68
181.935	2013.24
182.011	2007.92
182.088	2022.52
182.164	2040.12
182.24	2057.09
182.317	2066.51
182.393	2068.32
182.469	2083.77
182.546	2096.9
182.622	2098.71
182.698	2093.38
182.775	2104.41
182.851	2118.78
182.927	2109.84
183.003	2107.32
183.08	2102.56
183.156	2108.65
183.232	2105.89
183.308	2092.53
183.385	2101.56
183.461	2118.35
183.537	2121.16
183.613	2137.05
183.69	2129.77
183.766	2119.82
183.842	2127.48
183.918	2131.43
183.995	2143.94
184.071	2148.65
184.147	2144.32
184.223	2134.58
184.299	2147.9
184.375	2137.43
184.452	2142.15
184.528	2192.63
184.604	2200.9
184.68	2212.42
184.756	2220.51
184.832	2226.69
184.908	2233.49
184.985	2230.16
185.061	2212.23
185.137	2220.08
185.213	2207.61
185.289	2207.66
185.365	2199.67
185.441	2194.86
185.517	2210.48
185.593	2207.19
185.669	2201.63
185.745	2210.67
185.822	2227.36
185.898	2217.22
185.974	2227.45
186.05	2218.31
186.126	2182.25
186.202	2177.3
186.278	2172.92
186.354	2163.83
186.43	2167.45
186.506	2165.36
186.582	2166.88
186.658	2175.82
186.734	2157.46
186.81	2160.36
186.886	2163.41
186.962	2174.54
187.038	2174.92
187.114	2165.97
187.19	2171.63
187.266	2163.64
187.341	2167.83
187.417	2163.02
187.493	2164.35
187.569	2165.83
187.645	2161.12
187.721	2149.89
187.797	2155.41
187.873	2160.36
187.949	2154.65
188.025	2150.22
188.101	2154.6
188.176	2159.21
188.252	2152.79
188.328	2160.31
188.404	2158.12
188.48	2154.55
188.556	2147.65
188.632	2145.66
188.707	2144.8
188.783	2141.85
188.859	2135.1
188.935	2120.87
189.011	2124.67
189.086	2117.92
189.162	2109.41
189.238	2105.51
189.314	2105.41
189.39	2103.56
189.465	2094.9
189.541	2113.26
189.617	2098.23
189.693	2092.14
189.768	2094.57
189.844	2122.98
189.92	2114.61
189.996	2121.03
190.071	2135.02
190.147	2134.59
190.223	2145.49
190.298	2138.45
190.374	2126.08
190.45	2141.63
190.526	2152.29
190.601	2147.44
190.677	2148.01
190.753	2175.33
190.828	2180.66
190.904	2194.07
190.98	2206.4
191.055	2219.82
191.131	2209.82
191.207	2230.95
191.282	2243.03
191.358	2232.23
191.433	2214.95
191.509	2227.65
191.585	2226.98
191.66	2226.88
191.736	2236.49
191.811	2227.26
191.887	2242.78
191.963	2269.86
192.038	2274.04
192.114	2275.23
192.189	2280.04
192.265	2275.95
192.34	2257.29
192.416	2253.15
192.491	2249.39
192.567	2250.72
192.642	2250.72
192.718	2248.2
192.793	2233.02
192.869	2228.6
192.944	2231.31
193.02	2239.54
193.095	2243.77
193.171	2251.48
193.246	2251.29
193.322	2247.58
193.397	2247.96
193.473	2237.01
193.548	2214.03
193.624	2219.31
193.699	2215.84
193.775	2234.73
193.85	2236.78
193.925	2242.54
194.001	2243.35
194.076	2234.97
194.152	2225.12
194.227	2215.89
194.302	2208.99
194.378	2213.23
194.453	2210.13
194.529	2223.88
194.604	2207.94
194.679	2203
194.755	2183.45
194.83	2192.92
194.905	2191.44
194.981	2201.77
195.056	2191.78
195.131	2199.63
195.207	2197.77
195.282	2187.36
195.357	2163.94
195.433	2180.45
195.508	2170.12
195.583	2177.83
195.659	2192.15
195.734	2201.67
195.809	2202.29
195.884	2214.61
195.96	2216.27
196.035	2232.12
196.11	2227.22
196.185	2241.54
196.261	2244.35
196.336	2273.32
196.411	2259.28
196.486	2266.13
196.561	2259.66
196.637	2268.89
196.712	2283.98
196.787	2286.22
196.862	2303.2
196.937	2313.91
197.013	2320.62
197.088	2331.66
197.163	2353.47
197.238	2373.14
197.313	2370.47
197.388	2386.18
197.464	2412.47
197.539	2423.41
197.614	2417.41
197.689	2431.93
197.764	2447.08
197.839	2469.79
197.914	2469.6
197.989	2492.36
198.065	2503.07
198.14	2553.58
198.215	2581.67
198.29	2594.92
198.365	2610.59
198.44	2621.39
198.515	2651.4
198.59	2666.08
198.665	2691.94
198.74	2701.61
198.815	2702.38
198.89	2726.86
198.965	2756.6
199.04	2752.4
199.115	2771.08
199.19	2809.52
199.265	2811.86
199.34	2822.48
199.415	2855.24
199.49	2874.06
199.565	2884.35
199.64	2909.75
199.715	2905.03
199.79	2914.04
199.865	2919.28
199.94	2920.43
200.015	2952.94
200.09	2960.38
200.165	2967.48
200.24	2972.44
200.315	3014.53
200.39	3027.64
200.464	3033.45
200.539	3034.6
200.614	3052.14
200.689	3074.89
200.764	3084.71
200.839	3104.82
200.914	3109.31
200.989	3095.47
201.063	3109.4
201.138	3089.96
201.213	3088
201.288	3069.03
201.363	3073.84
201.438	3075.13
201.512	3088.57
201.587	3070.92
201.662	3071.4
201.737	3084.13
201.812	3093.1
201.886	3054.97
201.961	3064.51
202.036	3049.93
202.111	3047.97
202.186	3021.24
202.26	3002.54
202.335	2983.75
202.41	2973.74
202.485	2956.73
202.559	2938.61
202.634	2911.11
202.709	2923.69
202.784	2907
202.858	2909.39
202.933	2889.75
203.008	2885.84
203.082	2865.3
203.157	2860.63
203.232	2818.94
203.306	2798.44
203.381	2765.7
203.456	2743.54
203.53	2721.8
203.605	2702.94
203.68	2678.06
203.754	2671.49
203.829	2654.91
203.904	2630.76
203.978	2620.61
204.053	2620.9
204.127	2608.94
204.202	2607.66
204.277	2592.08
204.351	2585.98
204.426	2573.93
204.5	2564.59
204.575	2528.31
204.65	2536.6
204.724	2529.79
204.799	2538.83
204.873	2529.21
204.948	2527.82
205.022	2517.68
205.097	2507.96
205.171	2523.53
205.246	2530.68
205.32	2524.06
205.395	2527.21
205.469	2520.21
205.544	2527.45
205.618	2511.79
205.693	2523.69
205.767	2513.36
205.842	2530.65
205.916	2523.89
205.991	2515.18
206.065	2519.46
206.14	2537.5
206.214	2533.16
206.289	2525.69
206.363	2535.21
206.438	2540.4
206.512	2547.97
206.586	2570.16
206.661	2577.98
206.735	2554.56
206.81	2553.84
206.884	2571.75
206.958	2557.41
207.033	2571.98
207.107	2577.13
207.181	2610.24
207.256	2604.38
207.33	2625.86
207.405	2641.83
207.479	2660.79
207.553	2670.41
207.628	2653.94
207.702	2662.75
207.776	2657.94
207.851	2662.98
207.925	2681.14
207.999	2678.95
208.073	2677.33
208.148	2675.04
208.222	2666.28
208.296	2698.84
208.371	2715.48
208.445	2726.3
208.519	2754.64
208.593	2768.79
208.668	2763.83
208.742	2767.69
208.816	2768.65
208.89	2778.23
208.965	2773.27
209.039	2780.7
209.113	2800.24
209.187	2822.19
209.261	2815.14
209.336	2834.87
209.41	2854.17
209.484	2853.22
209.558	2874.81
209.632	2886.91
209.707	2899.21
209.781	2919.7
209.855	2937.11
209.929	2954.67
210.003	2962.86
210.077	2964.82
210.151	3011.49
210.226	3047.64
210.3	3073.84
210.374	3095.62
210.448	3100.63
210.522	3111.65
210.596	3119.09
210.67	3126.19
210.744	3175.04
210.818	3208.98
210.892	3228.59
210.966	3225.58
211.041	3239.94
211.115	3235.26
211.189	3260.64
211.263	3279.57
211.337	3282.29
211.411	3296.89
211.485	3292.31
211.559	3303.9
211.633	3304.76
211.707	3273.54
211.781	3280.61
211.855	3246.11
211.929	3235.53
212.003	3215.36
212.077	3224.48
212.151	3239.8
212.225	3249.15
212.299	3236.02
212.373	3224.81
212.447	3221.09
212.52	3247.95
212.594	3250.38
212.668	3263.11
212.742	3245.99
212.816	3237.59
212.89	3230.87
212.964	3225.52
213.038	3229.15
213.112	3239.89
213.186	3252.91
213.26	3228.07
213.333	3180.09
213.407	3183.23
213.481	3187.52
213.555	3199.2
213.629	3183.5
213.703	3164.22
213.777	3157.35
213.85	3134.55
213.924	3166.05
213.998	3161.99
214.072	3153.54
214.146	3135.27
214.219	3128.55
214.293	3122.21
214.367	3120.63
214.441	3127.55
214.515	3113.28
214.588	3082.24
214.662	3038.99
214.736	3011.72
214.81	3013.43
214.883	3018.91
214.957	3000.8
215.031	2981.84
215.105	2952.07
215.178	2934.29
215.252	2920.08
215.326	2891.67
215.4	2862.95
215.473	2805.06
215.547	2777.83
215.621	2754.61
215.694	2751.7
215.768	2720.53
215.842	2699.19
215.915	2672.83
215.989	2637.52
216.063	2619.89
216.136	2611.6
216.21	2604.45
216.284	2608.36
216.357	2599.93
216.431	2581.93
216.504	2579.78
216.578	2595.08
216.652	2594.31
216.725	2582.83
216.799	2581.79
216.873	2575.02
216.946	2576.45
217.02	2563.55
217.093	2552.88
217.167	2519.79
217.24	2491.92
217.314	2479.83
217.387	2463.84
217.461	2449.75
217.535	2456.65
217.608	2432.8
217.682	2422.18
217.755	2423.71
217.829	2405.7
217.902	2399.04
217.976	2392.23
218.049	2375.29
218.123	2349.66
218.196	2347.57
218.27	2334.34
218.343	2311.72
218.417	2305.01
218.49	2296.34
218.563	2307.15
218.637	2306
218.71	2324.33
218.784	2332.38
218.857	2342.18
218.931	2346.51
219.004	2348.7
219.077	2350.18
219.151	2352.41
219.224	2348.84
219.298	2343.03
219.371	2352.46
219.444	2338.33
219.518	2339.23
219.591	2341.42
219.665	2370.76
219.738	2372.95
219.811	2366.96
219.885	2379.38
219.958	2387
220.031	2384.19
220.105	2387.48
220.178	2386.67
220.251	2377.29
220.325	2382.53
220.398	2383.19
220.471	2389.29
220.544	2396.9
220.618	2390.95
220.691	2399.95
220.764	2405.37
220.838	2413.51
220.911	2408.18
220.984	2429.98
221.057	2440.02
221.131	2446.54
221.204	2416.87
221.277	2434.87
221.35	2466.39
221.424	2461.34
221.497	2460.72
221.57	2468.28
221.643	2476.24
221.716	2486.62
221.79	2485.67
221.863	2484.14
221.936	2483.57
222.009	2481.29
222.082	2487.1
222.155	2483
222.229	2499.53
222.302	2506.87
222.375	2504.91
222.448	2514.91
222.521	2517.49
222.594	2515.25
222.667	2504.02
222.74	2515.49
222.814	2513.54
222.887	2508.77
222.96	2521.15
223.033	2533.35
223.106	2538.87
223.179	2544.54
223.252	2545.3
223.325	2553.68
223.398	2555.49
223.471	2557.97
223.544	2564.39
223.617	2564.68
223.69	2573.49
223.763	2561.48
223.837	2559.1
223.91	2566.96
223.983	2545.49
224.056	2530.63
224.129	2533.49
224.202	2546.67
224.275	2541.15
224.348	2528.43
224.42	2515.01
224.493	2497.77
224.566	2486.81
224.639	2492.05
224.712	2484.43
224.785	2479.71
224.858	2473.67
224.931	2465.76
225.004	2455.57
225.077	2453.53
225.15	2424.11
225.223	2418.21
225.296	2434.36
225.369	2418.56
225.442	2405.84
225.514	2408.84
225.587	2412.79
225.66	2410.22
225.733	2406.22
225.806	2407.55
225.879	2404.17
225.952	2394.8
226.025	2402.37
226.097	2416.33
226.17	2408.61
226.243	2384.34
226.316	2379.58
226.389	2378.77
226.461	2386.72
226.534	2389.86
226.607	2384.01
226.68	2407.32
226.753	2406.23
226.825	2381.46
226.898	2396.55
226.971	2398.02
227.044	2403.17
227.117	2403.31
227.189	2406.17
227.262	2417.12
227.335	2422.02
227.407	2414.31
227.48	2419.26
227.553	2422.17
227.626	2412.3
227.698	2412.97
227.771	2420.2
227.844	2409.64
227.916	2408.87
227.989	2388.55
228.062	2383.17
228.134	2401.6
228.207	2397.79
228.28	2387.55
228.352	2385.98
228.425	2380.41
228.498	2384.51
228.57	2367.9
228.643	2379.23
228.716	2373.28
228.788	2363.81
228.861	2352.1
228.934	2369.42
229.006	2363.9
229.079	2357.76
229.151	2347.43
229.224	2328.87
229.296	2332.54
229.369	2358.39
229.442	2370.58
229.514	2364.11
229.587	2376.96
229.659	2356.06
229.732	2357.16
229.804	2367.53
229.877	2390.87
229.949	2398.58
230.022	2412.25
230.094	2414.49
230.167	2410.97
230.239	2400.5
230.312	2397.16
230.384	2421.5
230.457	2417.6
230.529	2421.5
230.602	2424.69
230.674	2428.78
230.747	2441.91
230.819	2453.43
230.892	2419.96
230.964	2418.3
231.037	2425.67
231.109	2420.2
231.181	2430.48
231.254	2418.86
231.326	2415.63
231.399	2405.48
231.471	2397.81
231.544	2374.14
231.616	2387.75
231.688	2386.18
231.761	2380.85
231.833	2375.38
231.905	2345.53
231.978	2343.72
232.05	2339.86
232.122	2338.2
232.195	2329.96
232.267	2339.24
232.339	2328.53
232.412	2345.09
232.484	2335.81
232.556	2327.24
232.629	2346.2
232.701	2349.58
232.773	2349.58
232.846	2339.82
232.918	2339.78
232.99	2342.59
233.062	2355.01
233.135	2357.68
233.207	2345.25
233.279	2354.39
233.351	2360.38
233.424	2359.95
233.496	2350.29
233.568	2371.81
233.64	2355.25
233.713	2357.11
233.785	2352.49
233.857	2351.87
233.929	2332.13
234.001	2350.41
234.074	2366.31
234.146	2338.74
234.218	2334.64
234.29	2331.69
234.362	2327.7
234.434	2311.99
234.507	2296.9
234.579	2277.67
234.651	2268.87
234.723	2274.39
234.795	2279.43
234.867	2275.96
234.939	2288.28
235.012	2295.14
235.084	2294.66
235.156	2307.22
235.228	2297.18
235.3	2291.52
235.372	2294.42
235.444	2311.79
235.516	2285.22
235.588	2288.12
235.66	2292.5
235.732	2280.08
235.804	2341.12
235.876	2352.77
235.948	2367.15
236.02	2372.15
236.092	2371.72
236.164	2372.72
236.236	2370.58
236.308	2367.77
236.38	2374.62
236.452	2365.01
236.524	2364.06
236.596	2377.21
236.668	2382.59
236.74	2388.49
236.812	2393.86
236.884	2401.67
236.956	2402.86
237.028	2396.35
237.1	2386.64
237.172	2405.92
237.244	2429.06
237.316	2390.29
237.388	2383.2
237.46	2372.87
237.532	2388.91
237.604	2385.92
237.675	2403.72
237.747	2414.96
237.819	2406.39
237.891	2405.35
237.963	2405.92
238.035	2404.06
238.107	2370.73
238.178	2384.82
238.25	2385.44
238.322	2409.12
238.394	2389.89
238.466	2389.7
238.538	2401.07
238.609	2410.39
238.681	2392.97
238.753	2384.06
238.825	2385.59
238.897	2392.72
238.968	2414.25
239.04	2404.25
239.112	2433.72
239.184	2421.1
239.255	2417.57
239.327	2426.95
239.399	2429.8
239.471	2440.46
239.542	2444.22
239.614	2464.79
239.686	2439.89
239.758	2454.26
239.829	2444.31
239.901	2462.82
239.973	2465.92
240.044	2473.06
240.116	2473.72
240.188	2474.67
240.259	2473.87
240.331	2467.91
240.403	2477.43
240.474	2461.05
240.546	2457.86
240.618	2437.48
240.689	2432.58
240.761	2435.2
240.833	2451.43
240.904	2450.67
240.976	2448.91
241.048	2456.58
241.119	2462.15
241.191	2474.62
241.262	2490.77
241.334	2485.68
241.405	2485.77
241.477	2480.25
241.549	2482.2
241.62	2488.87
241.692	2500.58
241.763	2516.58
241.835	2520.54
241.906	2521.3
241.978	2509.11
242.049	2525.64
242.121	2540.06
242.192	2559.54
242.264	2549.49
242.335	2529.78
242.407	2537.64
242.478	2534.54
242.55	2536.83
242.621	2529.11
242.693	2523.21
242.764	2518.68
242.836	2515.44
242.907	2522.73
242.979	2530.2
243.05	2534.2
243.122	2535.49
243.193	2529.82
243.264	2507.25
243.336	2504.87
243.407	2513.25
243.479	2539.96
243.55	2542.87
243.622	2548.97
243.693	2544.54
243.764	2562.77
243.836	2557.49
243.907	2555.92
243.978	2556.25
244.05	2562.21
244.121	2544.83
244.192	2556.69
244.264	2540.02
244.335	2544.97
244.407	2527.92
244.478	2532.73
244.549	2526.21
244.62	2514.92
244.692	2515.88
244.763	2526.16
244.834	2520.4
244.906	2512.3
244.977	2513.44
245.048	2526.88
245.119	2513.88
245.191	2505.79
245.262	2485.31
245.333	2503.07
245.405	2500.88
245.476	2508.68
245.547	2511.92
245.618	2525.11
245.689	2527.49
245.761	2532.82
245.832	2531.78
245.903	2540.97
245.974	2544.92
246.045	2547.87
246.117	2567.68
246.188	2557.5
246.259	2548.45
246.33	2550.78
246.401	2550.12
246.473	2532.49
246.544	2522.2
246.615	2536.63
246.686	2536.01
246.757	2552.77
246.828	2543.01
246.899	2561.59
246.97	2544.64
247.042	2531.12
247.113	2540.4
247.184	2560.61
247.255	2555.42
247.326	2556
247.397	2550.71
247.468	2548.9
247.539	2548.76
247.61	2531.94
247.681	2541.85
247.752	2554.75
247.823	2547.7
247.894	2549.42
247.965	2544.28
248.037	2538.08
248.108	2521.13
248.179	2517.8
248.25	2514.89
248.321	2524.46
248.392	2511.4
248.463	2535.3
248.534	2539.45
248.605	2543.97
248.675	2536.68
248.746	2542.58
248.817	2552.3
248.888	2561.73
248.959	2545.07
249.03	2552.4
249.101	2553.02
249.172	2549.88
249.243	2531.74
249.314	2547.88
249.385	2549.69
249.456	2557.59
249.527	2556.69
249.598	2564.02
249.669	2567.02
249.739	2569.35
249.81	2574.83
249.881	2561.12
249.952	2557.45
250.023	2553.88
250.094	2539.64
250.165	2527.91
250.235	2527.1
250.306	2523.48
250.377	2512.29
250.448	2520.72
250.519	2498.01
250.59	2514.29
250.66	2513.63
250.731	2528.91
250.802	2522.95
250.873	2527.86
250.944	2532.24
251.014	2526.86
251.085	2551.26
251.156	2559.35
251.227	2575.17
251.297	2586.84
251.368	2600.46
251.439	2610.85
251.51	2622.52
251.58	2614.28
251.651	2609.33
251.722	2625.19
251.792	2607.19
251.863	2607.96
251.934	2623.63
252.005	2654.15
252.075	2654.44
252.146	2665.53
252.217	2679.92
252.287	2693.64
252.358	2689.12
252.429	2707.6
252.499	2700.32
252.57	2701.04
252.641	2706.94
252.711	2703.94
252.782	2686.31
252.852	2704.76
252.923	2702.8
252.994	2705.37
253.064	2719.94
253.135	2710.71
253.205	2700.75
253.276	2724.23
253.347	2742.23
253.417	2731.94
253.488	2725.79
253.558	2720.27
253.629	2716.17
253.699	2715.65
253.77	2723.56
253.841	2720.03
253.911	2720.94
253.982	2724.18
254.052	2729.85
254.123	2731.09
254.193	2727.71
254.264	2768.04
254.334	2754.79
254.405	2742.88
254.475	2730.49
254.546	2727.54
254.616	2745.73
254.687	2749.26
254.757	2751.4
254.827	2745.45
254.898	2748.16
254.968	2748.83
255.039	2739.73
255.109	2746.4
255.18	2738.87
255.25	2712.76
255.321	2721.91
255.391	2705.99
255.461	2728.19
255.532	2700.21
255.602	2695.5
255.673	2675.87
255.743	2661.99
255.813	2637.57
255.884	2648.09
255.954	2654.81
256.024	2675.63
256.095	2676.25
256.165	2660.15
256.235	2662.49
256.306	2655.2
256.376	2667.12
256.446	2674.55
256.517	2680.88
256.587	2694.56
256.657	2694.28
256.728	2696.37
256.798	2694.85
256.868	2689.04
256.938	2679.79
257.009	2688.46
257.079	2695.08
257.149	2719.81
257.219	2696.26
257.29	2705.31
257.36	2685.54
257.43	2691.93
257.5	2663.53
257.571	2653.62
257.641	2661.96
257.711	2647.76
257.781	2652.8
257.852	2656.81
257.922	2635.85
257.992	2632.04
258.062	2622.79
258.132	2630.08
258.202	2629.08
258.273	2628.65
258.343	2650.86
258.413	2642.62
258.483	2642.14
258.553	2628.52
258.623	2620.46
258.693	2624.94
258.764	2638.66
258.834	2654.8
258.904	2658.8
258.974	2651.76
259.044	2651.28
259.114	2655.09
259.184	2658.43
259.254	2655.9
259.324	2630.94
259.394	2637.51
259.464	2655.99
259.535	2652.9
259.605	2644.89
259.675	2632.56
259.745	2636.09
259.815	2618.41
259.885	2611.17
259.955	2640.98
260.025	2627.51
260.095	2625.32
260.165	2627.22
260.235	2641.23
260.305	2627.76
260.375	2610.41
260.445	2634.37
260.515	2648.61
260.585	2656.57
260.655	2653.52
260.725	2659.67
260.795	2666.57
260.865	2683.68
260.934	2671.19
261.004	2675.1
261.074	2675.05
261.144	2693.05
261.214	2702.53
261.284	2700.48
261.354	2708.96
261.424	2691.55
261.494	2714.07
261.564	2710.54
261.634	2716.21
261.703	2692.53
261.773	2702.05
261.843	2710.63
261.913	2706.2
261.983	2686.47
262.053	2691.77
262.123	2689.48
262.192	2677.19
262.262	2685.48
262.332	2669.14
262.402	2676.95
262.472	2675.66
262.541	2653.19
262.611	2663.34
262.681	2651.67
262.751	2661.96
262.821	2656.96
262.89	2640.56
262.96	2643.95
263.03	2663.77
263.1	2666.44
263.169	2667.77
263.239	2667.73
263.309	2684.07
263.379	2687.36
263.448	2687.22
263.518	2688.08
263.588	2687.12
263.657	2703.7
263.727	2709.56
263.797	2706.8
263.867	2699.7
263.936	2686.03
264.006	2699.07
264.076	2688.16
264.145	2682.02
264.215	2669.3
264.285	2677.34
264.354	2662.16
264.424	2652.39
264.494	2633.9
264.563	2623.27
264.633	2645
264.702	2648.24
264.772	2625.6
264.842	2616.17
264.911	2620.6
264.981	2603.97
265.05	2599.83
265.12	2591.2
265.19	2591.77
265.259	2599.92
265.329	2605.4
265.398	2607.78
265.468	2631.55
265.537	2627.17
265.607	2632.55
265.676	2642.22
265.746	2643.51
265.815	2655.51
265.885	2655.36
265.955	2641.84
266.024	2637.94
266.094	2612.11
266.163	2626.03
266.232	2639.51
266.302	2638.51
266.371	2640.08
266.441	2636.75
266.51	2645.37
266.58	2639.89
266.649	2626.07
266.719	2634.89
266.788	2638.27
266.858	2651.57
266.927	2625.98
266.996	2631.03
267.066	2631.65
267.135	2617.17
267.205	2625.65
267.274	2622.18
267.343	2631.08
267.413	2630.94
267.482	2642.47
267.552	2654.28
267.621	2629.98
267.69	2609.31
267.76	2608.64
267.829	2608.5
267.898	2608.79
267.968	2600.4
268.037	2607.5
268.106	2615.17
268.176	2598.64
268.245	2593.78
268.314	2584.73
268.384	2594.06
268.453	2590.2
268.522	2594.44
268.592	2604.3
268.661	2590.01
268.73	2595.25
268.799	2580.91
268.869	2598.05
268.938	2577.48
269.007	2568
269.076	2571.14
269.146	2581.38
269.215	2582.38
269.284	2600.39
269.353	2596.3
269.422	2593.35
269.492	2583.25
269.561	2555.73
269.63	2559.44
269.699	2550.01
269.768	2547.73
269.838	2550.58
269.907	2556.78
269.976	2537.3
270.045	2513.16
270.114	2520.12
270.183	2518.17
270.253	2520.88
270.322	2501.4
270.391	2502.02
270.46	2514.83
270.529	2521.84
270.598	2526.84
270.667	2523.22
270.736	2505.3
270.806	2507.11
270.875	2515.49
270.944	2512.45
271.013	2540.06
271.082	2536.49
271.151	2539.21
271.22	2522.78
271.289	2514.92
271.358	2507.02
271.427	2511.97
271.496	2516.49
271.565	2507.92
271.634	2502.49
271.703	2537.9
271.772	2546.04
271.841	2543.18
271.91	2524.61
271.979	2521.27
272.048	2500.47
272.117	2505.27
272.186	2497.23
272.255	2503.09
272.324	2504.7
272.393	2506.32
272.462	2496.41
272.531	2497.32
272.6	2494.46
272.669	2506.27
272.738	2502.12
272.807	2504.93
272.876	2491.51
272.945	2521.46
273.013	2527.51
273.082	2535.61
273.151	2492.34
273.22	2493.44
273.289	2489.77
273.358	2503.82
273.427	2497.68
273.496	2503.15
273.564	2504.87
273.633	2510.68
273.702	2495.91
273.771	2491.06
273.84	2493.58
273.909	2493.58
273.977	2493.53
274.046	2484.63
274.115	2490.96
274.184	2480.83
274.253	2476.44
274.322	2487.44
274.39	2459.29
274.459	2452.63
274.528	2429.16
274.597	2427.49
274.665	2428.4
274.734	2439.49
274.803	2432.2
274.872	2429.15
274.94	2418.07
275.009	2476.88
275.078	2465.17
275.147	2466.93
275.215	2464.36
275.284	2471.74
275.353	2466.65
275.421	2444.75
275.49	2465.09
275.559	2457.75
275.627	2456.37
275.696	2452.38
275.765	2454.71
275.833	2450.33
275.902	2448.62
275.971	2460.7
276.039	2478.32
276.108	2480.27
276.177	2481.75
276.245	2473.85
276.314	2472.23
276.383	2481.84
276.451	2422.07
276.52	2426.26
276.588	2439.4
276.657	2445.21
276.725	2434.88
276.794	2434.12
276.863	2448.97
276.931	2425.96
277	2434.01
277.068	2441.91
277.137	2460.39
277.205	2458.2
277.274	2480.91
277.342	2490.1
277.411	2475.01
277.48	2462.06
277.548	2454.06
277.617	2455.25
277.685	2452.06
277.754	2459.16
277.822	2455.92
277.89	2467.31
277.959	2464.21
278.027	2445.5
278.096	2437.27
278.164	2465.18
278.233	2460.23
278.301	2453.61
278.37	2459.56
278.438	2445.76
278.507	2448.28
278.575	2421.95
278.643	2421.04
278.712	2401
278.78	2388.76
278.849	2399.94
278.917	2411.8
278.985	2409.8
279.054	2412.75
279.122	2425.85
279.191	2422.18
279.259	2417.23
279.327	2393.18
279.396	2408.75
279.464	2408.66
279.532	2413.42
279.601	2408.79
279.669	2405.79
279.737	2418.6
279.806	2423.03
279.874	2433.74
279.942	2434.5
280.011	2432.27
280.079	2437.84
280.147	2454.26
280.215	2459.16
280.284	2453.64
280.352	2440.03
280.42	2448.36
280.488	2439.21
280.557	2430.98
280.625	2432.12
280.693	2433.36
280.761	2438.74
280.83	2422.93
280.898	2432.69
280.966	2413.17
281.034	2379.79
281.102	2365.19
281.171	2356.71
281.239	2366.81
281.307	2357.96
281.375	2341.49
281.443	2364.48
281.512	2361.25
281.58	2366.91
281.648	2353.73
281.716	2353.83
281.784	2353.54
281.852	2345.3
281.92	2343.59
281.989	2352.68
282.057	2338.03
282.125	2381.86
282.193	2380.62
282.261	2381.14
282.329	2377.14
282.397	2383.14
282.465	2387.9
282.533	2404.26
282.601	2393.74
282.67	2372.03
282.738	2362.7
282.806	2378.02
282.874	2366.12
282.942	2367.88
283.01	2362.26
283.078	2368.64
283.146	2367.54
283.214	2373.35
283.282	2374.97
283.35	2383.54
283.418	2376.97
283.486	2380.06
283.554	2335.18
283.622	2335.33
283.69	2332.14
283.758	2326.28
283.826	2329.28
283.894	2339.52
283.962	2357.13
284.03	2371.65
284.098	2367.89
284.165	2363.66
284.233	2361.18
284.301	2353.43
284.369	2345.05
284.437	2335.05
284.505	2326.2
284.573	2340.14
284.641	2332.1
284.709	2339.1
284.777	2319.63
284.845	2323.11
284.912	2325.77
284.98	2333.05
285.048	2325.53
285.116	2328.1
285.184	2340.53
285.252	2340.19
285.319	2323.16
285.387	2313.53
285.455	2295.83
285.523	2303.92
285.591	2302.88
285.659	2305.35
285.726	2316.49
285.794	2302.74
285.862	2301.31
285.93	2302.83
285.997	2299.36
286.065	2293.41
286.133	2284.08
286.201	2284.94
286.269	2272.18
286.336	2267.04
286.404	2259.23
286.472	2269.61
286.539	2253.44
286.607	2240.3
286.675	2243.82
286.743	2250.96
286.81	2245.96
286.878	2261.09
286.946	2253.57
287.013	2253.14
287.081	2251
287.149	2240.25
287.216	2256.33
287.284	2248.48
287.352	2249.66
287.419	2242.81
287.487	2258.37
287.555	2262.37
287.622	2260.23
287.69	2267.89
287.758	2279.36
287.825	2275.51
287.893	2261.99
287.96	2268.37
288.028	2273.27
288.096	2271.17
288.163	2274.7
288.231	2261.32
288.298	2257.09
288.366	2268.03
288.433	2263.8
288.501	2252.72
288.569	2254.81
288.636	2248.48
288.704	2257.81
288.771	2260.8
288.839	2250.77
288.906	2238.72
288.974	2241.11
289.041	2235.3
289.109	2218.74
289.176	2224.03
289.244	2221.75
289.311	2232.79
289.379	2235.36
289.446	2236.31
289.514	2234.12
289.581	2229.12
289.649	2230.64
289.716	2228.98
289.783	2218.03
289.851	2233.49
289.918	2231.35
289.986	2232.11
290.053	2235.02
290.121	2228.16
290.188	2228.59
290.255	2253.15
290.323	2244.73
290.39	2236.06
290.458	2239.35
290.525	2249.53
290.592	2237.72
290.66	2235.44
290.727	2220.83
290.794	2230.39
290.862	2222.3
290.929	2218.45
290.996	2213.03
291.064	2215.31
291.131	2221.16
291.198	2225.92
291.266	2217.31
291.333	2213.98
291.4	2214.13
291.468	2223.5
291.535	2215.94
291.602	2211.47
291.669	2197.99
291.737	2199.14
291.804	2194.23
291.871	2206.56
291.938	2208.22
292.006	2228.32
292.073	2236.59
292.14	2244.35
292.207	2228.98
292.275	2226.51
292.342	2230.12
292.409	2250.73
292.476	2268.25
292.543	2253.31
292.611	2249.59
292.678	2263.35
292.745	2283.38
292.812	2285.57
292.879	2273.43
292.946	2273.52
293.014	2284.04
293.081	2283.61
293.148	2289.66
293.215	2298.65
293.282	2287.8
293.349	2290.51
293.416	2265.38
293.484	2272.9
293.551	2276.18
293.618	2290.55
293.685	2308.68
293.752	2297.07
293.819	2286.55
293.886	2268.51
293.953	2269.18
294.02	2276.41
294.087	2274.46
294.154	2259.14
294.221	2268.9
294.288	2266.23
294.356	2279.03
294.423	2275.51
294.49	2264.52
294.557	2272.47
294.624	2261.19
294.691	2272.85
294.758	2267.04
294.825	2269.56
294.892	2254.91
294.959	2252.58
295.026	2254.34
295.093	2242.34
295.16	2241.2
295.226	2235.73
295.293	2256.1
295.36	2256.96
295.427	2256.77
295.494	2262.48
295.561	2268.09
295.628	2284.1
295.695	2292.48
295.762	2286.15
295.829	2290.38
295.896	2301.14
295.963	2301.85
296.03	2303.13
296.096	2300.18
296.163	2308.42
296.23	2319.74
296.297	2327.59
296.364	2317.89
296.431	2314.41
296.498	2305.28
296.564	2321.65
296.631	2317.84
296.698	2297.51
296.765	2312.46
296.832	2296.56
296.899	2277.39
296.965	2287.48
297.032	2257.52
297.099	2267.57
297.166	2271.09
297.233	2261.47
297.299	2248.53
297.366	2245.01
297.433	2246.25
297.5	2252.06
297.566	2243.77
297.633	2234.54
297.7	2233.16
297.767	2229.26
297.833	2232.36
297.9	2229.31
297.967	2208.24
298.033	2218.99
298.1	2243.32
298.167	2231.57
298.234	2235.61
298.3	2244.79
298.367	2234.22
298.434	2240.22
298.5	2226.75
298.567	2217.04
298.634	2211.14
298.7	2226.03
298.767	2221.42
298.834	2226.32
298.9	2217.04
298.967	2207.76
299.033	2216.43
299.1	2226.04
299.167	2238.07
299.233	2228.22
299.3	2237.55
299.366	2251.01
299.433	2260.1
299.5	2228.78
299.566	2226.69
299.633	2237.73
299.699	2242.15
299.766	2236.68
299.832	2236.92
299.899	2242.06
299.965	2254
300.032	2250.39
300.099	2255.15
300.165	2257.1
300.232	2249.67
300.298	2245.58
300.365	2258.67
300.431	2253.14
300.498	2245.15
300.564	2243.96
300.631	2252.19
300.697	2266.14
300.763	2267.18
300.83	2261.09
300.896	2273.74
300.963	2282.78
301.029	2285.07
301.096	2286.69
301.162	2294.92
301.229	2286.78
301.295	2273.55
301.361	2274.93
301.428	2277.22
301.494	2258.99
301.561	2260.8
301.627	2263.89
301.693	2265.46
301.76	2266.18
301.826	2258.37
301.892	2267.27
301.959	2277.27
302.025	2272.6
302.092	2266.13
302.158	2267.84
302.224	2269.65
302.291	2261.04
302.357	2255
302.423	2248.43
302.49	2239.86
302.556	2253.43
302.622	2254.43
302.688	2263.94
302.755	2274.89
302.821	2282.17
302.887	2291.21
302.954	2287.69
303.02	2295.02
303.086	2303.58
303.152	2300.44
303.219	2298.35
303.285	2306.06
303.351	2309.06
303.417	2311.16
303.483	2301.4
303.55	2294.98
303.616	2293.88
303.682	2293.26
303.748	2287.41
303.815	2302.6
303.881	2310.98
303.947	2297.65
304.013	2300.22
304.079	2293.22
304.145	2273.13
304.212	2269.14
304.278	2264.43
304.344	2262.72
304.41	2251.25
304.476	2241.49
304.542	2239.45
304.608	2249.39
304.674	2232.16
304.741	2229.16
304.807	2236.92
304.873	2243.25
304.939	2261.95
305.005	2244.25
305.071	2242.96
305.137	2247.44
305.203	2225.97
305.269	2225.49
305.335	2240.58
305.401	2241.49
305.467	2243.91
305.533	2254.62
305.599	2268.23
305.666	2276.51
305.732	2280.41
305.798	2294.78
305.864	2324.02
305.93	2328.58
305.996	2326.39
306.062	2328.96
306.128	2323.16
306.194	2309.21
306.259	2310.45
306.325	2302.4
306.391	2316.3
306.457	2329.24
306.523	2337.28
306.589	2360.75
306.655	2356.85
306.721	2341.14
306.787	2330.81
306.853	2347.57
306.919	2334.67
306.985	2326.15
307.051	2320.4
307.117	2319.4
307.183	2317.87
307.248	2290.21
307.314	2298.45
307.38	2304.4
307.446	2313.16
307.512	2309.68
307.578	2321.48
307.644	2317.34
307.709	2322.29
307.775	2324.63
307.841	2322.29
307.907	2322.15
307.973	2307.82
308.039	2311.72
308.104	2318.15
308.17	2325.85
308.236	2317.05
308.302	2324.9
308.368	2319.09
308.433	2328.42
308.499	2326.42
308.565	2315.14
308.631	2323.47
308.696	2305
308.762	2295.39
308.828	2292.87
308.894	2281.02
308.959	2260.38
309.025	2258.9
309.091	2256.04
309.156	2250.86
309.222	2257.33
309.288	2249.24
309.354	2233.35
309.419	2230.54
309.485	2222.64
309.551	2228.97
309.616	2215.79
309.682	2216.22
309.748	2214.79
309.813	2212.46
309.879	2207.66
309.945	2203.99
310.01	2201.04
310.076	2208.8
310.141	2209.32
310.207	2197.85
310.273	2205.13
310.338	2218.3
310.404	2205.65
310.469	2197.71
310.535	2192.95
310.601	2175.06
310.666	2183.29
310.732	2197.99
310.797	2193.32
310.863	2186.66
310.928	2184
310.994	2191.66
311.059	2192.42
311.125	2195.32
311.191	2210.03
311.256	2205.52
311.322	2215.41
311.387	2201.24
311.453	2587.01
311.518	2566.76
311.584	2574.42
311.649	2582.89
311.715	2574.99
311.78	2584.79
311.846	2580.98
311.911	2590.07
311.976	2596.45
312.042	2589.78
312.107	2578.94
312.173	2578.37
312.238	2576.22
312.304	2574.32
312.369	2570.8
312.434	2564.19
312.5	2563.66
312.565	2531.87
312.631	2538.82
312.696	2534.73
312.761	2543.1
312.827	2156.79
312.892	2201.72
312.958	2201.48
313.023	2204.09
313.088	2209.61
313.154	2199.86
313.219	2197.06
313.284	2190.82
313.35	2193.39
313.415	2185.97
313.48	2186.54
313.546	2191.68
313.611	2208.24
313.676	2204.62
313.741	2200.77
313.807	2211.9
313.872	2218.52
313.937	2230.31
314.003	2245.92
314.068	2252.59
314.133	2262.48
314.198	2255.2
314.264	2237.3
314.329	2230.3
314.394	2231.87
314.459	2229.83
314.525	2253.86
314.59	2254.28
314.655	2249.48
314.72	2258.95
314.785	2267.04
314.851	2264.94
314.916	2251.86
314.981	2240.01
315.046	2236.63
315.111	2231.78
315.176	2221.65
315.242	2227.74
315.307	2231.21
315.372	2213.7
315.437	2208.7
315.502	2203.61
315.567	2219.74
315.632	2209.56
315.698	2219.27
315.763	2218.5
315.828	2219.46
315.893	2221.03
315.958	2227.31
316.023	2229.07
316.088	2219.93
316.153	2212.7
316.218	2223.07
316.283	2225.21
316.348	2228.4
316.413	2245.96
316.479	2253.33
316.544	2246.05
316.609	2240.2
316.674	2231.3
316.739	2227.59
316.804	2227.02
316.869	2223.83
316.934	2216.41
316.999	2221.97
317.064	2203.66
317.129	2195.33
317.194	2194.28
317.259	2183.53
317.324	2168.59
317.389	2163.03
317.454	2160.84
317.518	2162.93
317.583	2174.45
317.648	2187.58
317.713	2188.96
317.778	2164.22
317.843	2172.69
317.908	2177.54
317.973	2175.35
318.038	2182.91
318.103	2186.72
318.168	2190.96
318.233	2198.71
318.297	2190.1
318.362	2189.58
318.427	2191.24
318.492	2202.28
318.557	2192.39
318.622	2202.39
318.687	2220.94
318.751	2213.23
318.816	2220.7
318.881	2225.22
318.946	2208.19
319.011	2197.19
319.075	2193.1
319.14	2197.43
319.205	2191.43
319.27	2192.1
319.335	2186.29
319.399	2183.96
319.464	2190.58
319.529	2175.35
319.594	2171.02
319.658	2178.92
319.723	2174.78
319.788	2185.15
319.853	2168.73
319.917	2181
319.982	2165.49
320.047	2163.97
320.112	2180.52
320.176	2165.67
320.241	2171.05
320.306	2179
320.37	2178.24
320.435	2188.37
320.5	2200.46
320.564	2199.55
320.629	2198.03
320.694	2205.45
320.758	2203.84
320.823	2197.37
320.888	2211.59
320.952	2205.59
321.017	2203.6
321.082	2203.55
321.146	2208.4
321.211	2215.97
321.275	2211.59
321.34	2206.93
321.405	2201.55
321.469	2192.99
321.534	2195.32
321.598	2185.04
321.663	2196.09
321.727	2206.27
321.792	2194.71
321.857	2188.81
321.921	2188.14
321.986	2185.62
322.05	2166.5
322.115	2166.26
322.179	2160.41
322.244	2140.63
322.308	2145.24
322.373	2133.06
322.437	2129.21
322.502	2136.4
322.566	2128.41
322.631	2129.5
322.695	2126.55
322.76	2119.99
322.824	2122.51
322.889	2114.38
322.953	2104.01
323.018	2072.09
323.082	2044.22
323.146	2028.24
323.211	2014.78
323.275	2004.46
323.34	1994.19
323.404	1995.81
323.468	1986.96
323.533	1981.4
323.597	1973.09
323.662	1956.96
323.726	1959.96
323.79	1950.26
323.855	1922.71
323.919	1907.73
323.983	1899.41
324.048	1887.24
324.112	2125.67
324.177	2109.79
324.241	2017.58
324.305	1927.27
324.37	1838.53
324.434	1755.35
324.498	1754.58
324.562	1745.8
324.627	1733.87
324.691	1728.3
324.755	1717.1
324.82	1700.28
324.884	1687.48
324.948	1686.99
325.012	1670.28
325.077	1638.09
