Data from 20250703_background_MAYP1162681_11-57-55-545.txt Node
Date: Thu Jul 03 11:57:55 BST 2025
User: adleo
Spectrometer: MAYP116268
Trigger mode: 0
Integration Time (sec): 1.000000E0
Scans to average: 1
Electric dark correction enabled: true
Nonlinearity correction enabled: true
Boxcar width: 10
XAxis mode: Wavelengths
Number of Pixels in Spectrum: 2068
>>>>>Begin Spectral Data<<<<<
179.565	1098.84
179.642	1148.62
179.718	1189.05
179.795	1225.07
179.871	1256.68
179.948	1271.18
180.024	1288.56
180.101	1309.1
180.177	1323.07
180.254	1343.12
180.33	1363.93
180.407	1411.02
180.483	1498.24
180.56	1581.24
180.636	1658.38
180.712	1646.4
180.789	1659.14
180.865	1670.06
180.942	1677.66
181.018	1690.25
181.095	1703.23
181.171	1709.12
181.248	1711.49
181.324	1725.85
181.4	1734.88
181.477	1742.86
181.553	1756.35
181.63	1778.64
181.706	1794.09
181.782	1801.02
181.859	1800.6
181.935	1805.25
182.011	1799.69
182.088	1817.52
182.164	1835.87
182.24	1850.65
182.317	1860.58
182.393	1856.69
182.469	1868.57
182.546	1878.64
182.622	1885.63
182.698	1879.21
182.775	1890.34
182.851	1903.79
182.927	1896.76
183.003	1888.58
183.08	1885.25
183.156	1892.38
183.232	1887.15
183.308	1876.22
183.385	1883.02
183.461	1901.65
183.537	1902.84
183.613	1916.86
183.69	1908.16
183.766	1896.99
183.842	1900.22
183.918	1905.26
183.995	1919.57
184.071	1924.99
184.147	1918.43
184.223	1904.79
184.299	1919.15
184.375	1908.79
184.452	1914.68
184.528	1964.61
184.604	1977.5
184.68	1986.67
184.756	1993.33
184.832	1998.61
184.908	2001.55
184.985	2002.55
185.061	1984.67
185.137	1993.8
185.213	1981.44
185.289	1980.78
185.365	1973.22
185.441	1970.75
185.517	1984.35
185.593	1978.31
185.669	1975.7
185.745	1986.44
185.822	2001.37
185.898	1991.76
185.974	1999.22
186.05	1991.04
186.126	1956
186.202	1948.29
186.278	1945.2
186.354	1938.07
186.43	1944.26
186.506	1943.35
186.582	1940.31
186.658	1947.96
186.734	1927.47
186.81	1931.23
186.886	1934.03
186.962	1945.87
187.038	1945.3
187.114	1934.83
187.19	1943.54
187.266	1932.22
187.341	1935.27
187.417	1930.7
187.493	1927.9
187.569	1934.22
187.645	1927.9
187.721	1915.73
187.797	1921.76
187.873	1923.95
187.949	1918.77
188.025	1913.16
188.101	1917.34
188.176	1925.37
188.252	1919.38
188.328	1928.08
188.404	1927.13
188.48	1922.66
188.556	1917.15
188.632	1916.58
188.707	1917.19
188.783	1911.77
188.859	1911.3
188.935	1900.84
189.011	1908.59
189.086	1906.68
189.162	1896.6
189.238	1897.03
189.314	1895.08
189.39	1892.66
189.465	1889.05
189.541	1903.93
189.617	1888.43
189.693	1883.3
189.768	1884.3
189.844	1910.31
189.92	1903.04
189.996	1912.36
190.071	1923.24
190.147	1922.48
190.223	1930.47
190.298	1921.72
190.374	1911.46
190.45	1920.96
190.526	1930.47
190.601	1924.29
190.677	1927.43
190.753	1954.4
190.828	1958.54
190.904	1973.94
190.98	1986.45
191.055	1996.1
191.131	1988.45
191.207	2006.47
191.282	2015.64
191.358	2007.46
191.433	1994.47
191.509	2008.26
191.585	2004.69
191.66	2004.83
191.736	2012.73
191.811	2003.79
191.887	2021.81
191.963	2044.69
192.038	2050.15
192.114	2048.3
192.189	2049.82
192.265	2047.06
192.34	2024.42
192.416	2018.81
192.491	2013.77
192.567	2016.1
192.642	2016.48
192.718	2017.14
192.793	2005.97
192.869	2003.02
192.944	2004.26
193.02	2008.68
193.095	2011.49
193.171	2017.62
193.246	2019.48
193.322	2017.05
193.397	2018.71
193.473	2004.83
193.548	1985.04
193.624	1989.56
193.699	1989.56
193.775	2007.02
193.85	2006.4
193.925	2015.91
194.001	2018.91
194.076	2013.53
194.152	2002.74
194.227	1994.7
194.302	1984.67
194.378	1988.57
194.453	1985.53
194.529	1999.03
194.604	1986.33
194.679	1978.35
194.755	1958.43
194.83	1970.94
194.905	1968.47
194.981	1977.31
195.056	1969.28
195.131	1978.98
195.207	1977.08
195.282	1966.05
195.357	1945.74
195.433	1959.67
195.508	1948.54
195.583	1953.15
195.659	1966.23
195.734	1973.79
195.809	1975.46
195.884	1982.83
195.96	1982.87
196.035	1994.71
196.11	1991
196.185	2002.75
196.261	2007.88
196.336	2037.41
196.411	2023.28
196.486	2027.32
196.561	2021.09
196.637	2030.93
196.712	2048.35
196.787	2052.72
196.862	2066.7
196.937	2077.59
197.013	2080.83
197.088	2091.91
197.163	2113.17
197.238	2128.03
197.313	2124.17
197.388	2135.49
197.464	2165.8
197.539	2179.69
197.614	2175.41
197.689	2187.64
197.764	2204.53
197.839	2222.18
197.914	2220.04
197.989	2239.51
198.065	2253.02
198.14	2300.01
198.215	2323.95
198.29	2330.8
198.365	2342.23
198.44	2353.69
198.515	2378.59
198.59	2392.68
198.665	2414.19
198.74	2424.76
198.815	2423.48
198.89	2450.85
198.965	2480.85
199.04	2477.28
199.115	2489.84
199.19	2532.45
199.265	2534.79
199.34	2541.41
199.415	2574.9
199.49	2592.42
199.565	2600.04
199.64	2621.94
199.715	2617.7
199.79	2624.99
199.865	2631.85
199.94	2632.09
200.015	2662.53
200.09	2667.24
200.165	2678.15
200.24	2684.91
200.315	2722.97
200.39	2738.55
200.464	2740.97
200.539	2741.21
200.614	2758.12
200.689	2778.42
200.764	2783
200.839	2799.95
200.914	2805.19
200.989	2791.27
201.063	2805.23
201.138	2790.85
201.213	2793.76
201.288	2777.23
201.363	2783.95
201.438	2783.42
201.512	2795.95
201.587	2778.94
201.662	2783.03
201.737	2790.37
201.812	2799.62
201.886	2765.62
201.961	2777.25
202.036	2765.87
202.111	2764.29
202.186	2732.49
202.26	2717.24
202.335	2697.84
202.41	2701.84
202.485	2686.65
202.559	2674.55
202.634	2648.55
202.709	2661.69
202.784	2640.87
202.858	2640.01
202.933	2621.01
203.008	2615.67
203.082	2599.39
203.157	2597.39
203.232	2559.02
203.306	2540.82
203.381	2511.24
203.456	2491.19
203.53	2466.65
203.605	2449.71
203.68	2422.7
203.754	2421.42
203.829	2409.04
203.904	2388.33
203.978	2366.62
204.053	2370.33
204.127	2356.29
204.202	2357.81
204.277	2336.87
204.351	2332.15
204.426	2325.44
204.5	2318.3
204.575	2286.09
204.65	2293.47
204.724	2287.9
204.799	2292.7
204.873	2289.99
204.948	2288.23
205.022	2276.71
205.097	2267.81
205.171	2280.56
205.246	2292.6
205.32	2289.13
205.395	2286.94
205.469	2279.38
205.544	2285.47
205.618	2268.63
205.693	2278.91
205.767	2266.15
205.842	2284.24
205.916	2276.77
205.991	2269.92
206.065	2274.39
206.14	2287.9
206.214	2284.9
206.289	2278.04
206.363	2291.51
206.438	2294.36
206.512	2298.55
206.586	2314.97
206.661	2324.11
206.735	2303.32
206.81	2306.61
206.884	2321.22
206.958	2309.94
207.033	2325.16
207.107	2330.16
207.181	2360.87
207.256	2353.69
207.33	2370.68
207.405	2386.35
207.479	2404.2
207.553	2406.15
207.628	2393.21
207.702	2403.87
207.776	2398.82
207.851	2402.44
207.925	2417.44
207.999	2412.11
208.073	2412.06
208.148	2412.73
208.222	2400.92
208.296	2432.94
208.371	2444.28
208.445	2456.52
208.519	2484.27
208.593	2494.36
208.668	2488.46
208.742	2491.65
208.816	2494.7
208.89	2507.32
208.965	2503.89
209.039	2510.51
209.113	2528.79
209.187	2544.26
209.261	2543.59
209.336	2560.02
209.41	2577.78
209.484	2577.88
209.558	2601.74
209.632	2612.6
209.707	2625.46
209.781	2648.27
209.855	2659.09
209.929	2675.92
210.003	2679.63
210.077	2678.54
210.151	2722.68
210.226	2752.32
210.3	2779.41
210.374	2798.7
210.448	2801.94
210.522	2811.71
210.596	2824.06
210.67	2834.68
210.744	2881.2
210.818	2907.69
210.892	2929.47
210.966	2927.04
211.041	2941.39
211.115	2935.48
211.189	2957.93
211.263	2971.18
211.337	2974.37
211.411	2989.29
211.485	2984.24
211.559	2995.01
211.633	2994.63
211.707	2963.82
211.781	2976.46
211.855	2940.36
211.929	2931.88
212.003	2913.88
212.077	2919.65
212.151	2930.23
212.225	2936.91
212.299	2924.65
212.373	2916.31
212.447	2908.87
212.52	2934.42
212.594	2937.43
212.668	2947.29
212.742	2933.42
212.816	2928.13
212.89	2923.94
212.964	2919.26
213.038	2916.59
213.112	2929.37
213.186	2942.81
213.26	2924.42
213.333	2878.1
213.407	2880.1
213.481	2883.48
213.555	2894.43
213.629	2882.7
213.703	2862.44
213.777	2861.16
213.85	2841.85
213.924	2866.93
213.998	2867.26
214.072	2858.01
214.146	2837.66
214.219	2832.42
214.293	2825.98
214.367	2825.08
214.441	2829.18
214.515	2817.31
214.588	2792.67
214.662	2751.27
214.736	2727.59
214.81	2729.35
214.883	2733.45
214.957	2720.97
215.031	2706.26
215.105	2679.93
215.178	2663.16
215.252	2652.92
215.326	2620.01
215.4	2593.58
215.473	2544.26
215.547	2514.87
215.621	2490.52
215.694	2487.52
215.768	2457.28
215.842	2435.81
215.915	2411.28
215.989	2379.66
216.063	2359.56
216.136	2353.51
216.21	2346.09
216.284	2350.85
216.357	2343.09
216.431	2329.81
216.504	2325.39
216.578	2334.81
216.652	2334.19
216.725	2321.44
216.799	2318.87
216.873	2311.49
216.946	2311.02
217.02	2297.98
217.093	2286.94
217.167	2259.2
217.24	2237.73
217.314	2226.89
217.387	2213.52
217.461	2199.49
217.535	2204.96
217.608	2185.07
217.682	2174.56
217.755	2174.46
217.829	2154.19
217.902	2145.67
217.976	2140.01
218.049	2125.36
218.123	2106.32
218.196	2103.99
218.27	2095.85
218.343	2074.59
218.417	2071.21
218.49	2065.93
218.563	2072.92
218.637	2073.4
218.71	2090.57
218.784	2095.95
218.857	2101.46
218.931	2106.17
219.004	2107.69
219.077	2108.07
219.151	2112.45
219.224	2107.93
219.298	2106.07
219.371	2119.49
219.444	2107.89
219.518	2106.56
219.591	2105.65
219.665	2129.45
219.738	2128.17
219.811	2117.76
219.885	2127.56
219.958	2136.79
220.031	2134.03
220.105	2137.69
220.178	2138.31
220.251	2127.13
220.325	2128.89
220.398	2135.74
220.471	2139.69
220.544	2148.3
220.618	2140.11
220.691	2148.15
220.764	2151.48
220.838	2157.24
220.911	2150.1
220.984	2170.31
221.057	2179.16
221.131	2183.68
221.204	2155.17
221.277	2175.68
221.35	2208.65
221.424	2206.13
221.497	2207.22
221.57	2210.65
221.643	2221.21
221.716	2229.02
221.79	2230.64
221.863	2233.59
221.936	2231.54
222.009	2234.01
222.082	2239.44
222.155	2239.96
222.229	2252.29
222.302	2261.09
222.375	2261.38
222.448	2270.85
222.521	2270.99
222.594	2268.9
222.667	2261.15
222.74	2272.75
222.814	2271.56
222.887	2263.8
222.96	2276.51
223.033	2285.03
223.106	2293.74
223.179	2297.88
223.252	2302.21
223.325	2309.44
223.398	2310.2
223.471	2314.06
223.544	2314.53
223.617	2315.82
223.69	2319.48
223.763	2307.96
223.837	2313.01
223.91	2315.91
223.983	2296.36
224.056	2284.46
224.129	2289.08
224.202	2302.02
224.275	2297.54
224.348	2286.31
224.42	2273.89
224.493	2257.85
224.566	2247.05
224.639	2247.86
224.712	2238.43
224.785	2231.63
224.858	2227.34
224.931	2219.92
225.004	2208.5
225.077	2203.7
225.15	2175.97
225.223	2172.49
225.296	2192.58
225.369	2172.22
225.442	2163.09
225.514	2171.65
225.587	2174.5
225.66	2171.93
225.733	2169.74
225.806	2169.89
225.879	2164.94
225.952	2156
226.025	2168.56
226.097	2181.13
226.17	2176.7
226.243	2156.49
226.316	2151.68
226.389	2150.3
226.461	2152.73
226.534	2156.2
226.607	2154.68
226.68	2176.13
226.753	2173.79
226.825	2147.19
226.898	2158.89
226.971	2158.93
227.044	2157.13
227.117	2157.74
227.189	2162.98
227.262	2170.78
227.335	2172.69
227.407	2166.93
227.48	2170.5
227.553	2166.93
227.626	2158.65
227.698	2155.41
227.771	2160.4
227.844	2149.46
227.916	2151.03
227.989	2137.14
228.062	2132.91
228.134	2151.75
228.207	2146.38
228.28	2137.82
228.352	2137.82
228.425	2136.1
228.498	2140.77
228.57	2127.78
228.643	2139.25
228.716	2132.02
228.788	2123.5
228.861	2117.36
228.934	2128.64
229.006	2128.3
229.079	2121.74
229.151	2114.46
229.224	2098.25
229.296	2101.53
229.369	2130.22
229.442	2137.79
229.514	2131.66
229.587	2139.22
229.659	2116.19
229.732	2118.48
229.804	2130.75
229.877	2149.83
229.949	2157.35
230.022	2172.58
230.094	2172.06
230.167	2167.73
230.239	2156.55
230.312	2151.41
230.384	2171.21
230.457	2170.45
230.529	2173.83
230.602	2178.63
230.674	2180.06
230.747	2195.46
230.819	2206.12
230.892	2170.96
230.964	2170.06
231.037	2172.34
231.109	2170.91
231.181	2179.38
231.254	2168.1
231.326	2161.97
231.399	2152.54
231.471	2140.55
231.544	2115.52
231.616	2127.74
231.688	2125.41
231.761	2120.89
231.833	2117.85
231.905	2092.91
231.978	2089.87
232.05	2082.93
232.122	2079.26
232.195	2071.94
232.267	2079.5
232.339	2071.6
232.412	2089.34
232.484	2083.06
232.556	2075.6
232.629	2093.26
232.701	2096.92
232.773	2096.4
232.846	2090.12
232.918	2091.21
232.99	2096.11
233.062	2108.1
233.135	2111.62
233.207	2101.16
233.279	2109.1
233.351	2118.18
233.424	2117.7
233.496	2108.67
233.568	2129.08
233.64	2116.19
233.713	2117.05
233.785	2116
233.857	2114.76
233.929	2097.4
234.001	2111.16
234.074	2129.65
234.146	2104.77
234.218	2102.48
234.29	2102.15
234.362	2097.44
234.434	2084.79
234.507	2068.48
234.579	2049.26
234.651	2040.94
234.723	2047.65
234.795	2051.78
234.867	2045.65
234.939	2056.68
235.012	2060.77
235.084	2060.15
235.156	2069.52
235.228	2061.72
235.3	2052.83
235.372	2055.16
235.444	2069.37
235.516	2044.87
235.588	2045.92
235.66	2048.34
235.732	2040.07
235.804	2091.2
235.876	2101.24
235.948	2116.89
236.02	2124.31
236.092	2127.78
236.164	2128.87
236.236	2125.97
236.308	2123.92
236.38	2130.25
236.452	2122.59
236.524	2124.45
236.596	2139.3
236.668	2145.44
236.74	2149.86
236.812	2157
236.884	2165.28
236.956	2166.7
237.028	2161.14
237.1	2152.63
237.172	2167.8
237.244	2187.88
237.316	2152.92
237.388	2146.74
237.46	2138.03
237.532	2150.54
237.604	2144.79
237.675	2161.77
237.747	2172.95
237.819	2169.72
237.891	2166.77
237.963	2162.11
238.035	2161.97
238.107	2129.08
238.178	2145.26
238.25	2148.12
238.322	2170.25
238.394	2155.27
238.466	2151.61
238.538	2164.11
238.609	2175.95
238.681	2159.73
238.753	2149.74
238.825	2154.78
238.897	2158.54
238.968	2176.67
239.04	2170.54
239.112	2199.46
239.184	2186.66
239.255	2180
239.327	2183.99
239.399	2186.94
239.471	2201.07
239.542	2208.16
239.614	2226.19
239.686	2199.92
239.758	2212.14
239.829	2198.19
239.901	2213.37
239.973	2218.74
240.044	2225.12
240.116	2224.07
240.188	2228.35
240.259	2228.88
240.331	2223.74
240.403	2233.34
240.474	2217.25
240.546	2209.31
240.618	2190.9
240.689	2188.23
240.761	2194.94
240.833	2211.88
240.904	2211.5
240.976	2205.89
241.048	2206.13
241.119	2212.17
241.191	2223.97
241.262	2239.06
241.334	2237.64
241.405	2235.3
241.477	2230.12
241.549	2229.79
241.62	2233.5
241.692	2241.68
241.763	2258.05
241.835	2257.34
241.906	2260.34
241.978	2254.11
242.049	2272.56
242.121	2286.89
242.192	2302.78
242.264	2289.12
242.335	2272.8
242.407	2281.56
242.478	2279.94
242.55	2282.84
242.621	2277.99
242.693	2272.99
242.764	2267.47
242.836	2266.94
242.907	2275.94
242.979	2283.36
243.05	2288.55
243.122	2292.26
243.193	2290.07
243.264	2267.18
243.336	2268.13
243.407	2275.51
243.479	2290.69
243.55	2291.88
243.622	2294.59
243.693	2291.98
243.764	2308.34
243.836	2298.59
243.907	2295.41
243.978	2298.02
244.05	2304.78
244.121	2286.42
244.192	2297.08
244.264	2282.51
244.335	2282.08
244.407	2262.48
244.478	2267.43
244.549	2264.62
244.62	2253.1
244.692	2251.39
244.763	2261.57
244.834	2256.29
244.906	2249.53
244.977	2253.82
245.048	2269.34
245.119	2259.97
245.191	2253.54
245.262	2236.08
245.333	2258.58
245.405	2260.58
245.476	2265.76
245.547	2271.19
245.618	2285.99
245.689	2287.89
245.761	2293.46
245.832	2294.55
245.903	2307.49
245.974	2309.45
246.045	2306.78
246.117	2325.96
246.188	2317.49
246.259	2307.93
246.33	2311.93
246.401	2308.07
246.473	2293.56
246.544	2284.84
246.615	2293.45
246.686	2287.6
246.757	2302.25
246.828	2287.93
246.899	2302.03
246.97	2287.52
247.042	2275.24
247.113	2280.42
247.184	2297.67
247.255	2291.96
247.326	2292.96
247.397	2289.48
247.468	2289.1
247.539	2289.67
247.61	2270.35
247.681	2280.77
247.752	2294.14
247.823	2285.53
247.894	2289.09
247.965	2279.96
248.037	2272.15
248.108	2260.92
248.179	2263.11
248.25	2259.73
248.321	2267.72
248.392	2255.82
248.463	2279.37
248.534	2278.09
248.605	2286.23
248.675	2279.7
248.746	2283.51
248.817	2288.65
248.888	2294.12
248.959	2277.9
249.03	2284.37
249.101	2288.03
249.172	2282.94
249.243	2265.29
249.314	2282.71
249.385	2284.42
249.456	2297.22
249.527	2297.7
249.598	2301.74
249.669	2301.36
249.739	2305.21
249.81	2309.45
249.881	2296.41
249.952	2293.56
250.023	2292.13
250.094	2275.09
250.165	2266.32
250.235	2264.14
250.306	2262.28
250.377	2252.38
250.448	2259.85
250.519	2240.96
250.59	2257.43
250.66	2254.48
250.731	2273.22
250.802	2266.51
250.873	2271.8
250.944	2273.51
251.014	2269.42
251.085	2291.94
251.156	2295.89
251.227	2308.79
251.297	2322.45
251.368	2331.83
251.439	2339.97
251.51	2352.2
251.58	2345.78
251.651	2339.21
251.722	2353.3
251.792	2341.83
251.863	2340.02
251.934	2353.21
252.005	2379.48
252.075	2378.24
252.146	2391.04
252.217	2398.7
252.287	2411.13
252.358	2407.04
252.429	2425.61
252.499	2418.23
252.57	2420.38
252.641	2432.94
252.711	2431.37
252.782	2412.28
252.852	2434.28
252.923	2433.52
252.994	2434.42
253.064	2447.37
253.135	2442.8
253.205	2436.75
253.276	2455.27
253.347	2471.68
253.417	2465.69
253.488	2462.16
253.558	2455.02
253.629	2453.26
253.699	2455.55
253.77	2457.55
253.841	2454.88
253.911	2450.45
253.982	2454.49
254.052	2460.69
254.123	2458.5
254.193	2457.55
254.264	2496.18
254.334	2482.89
254.405	2471.46
254.475	2457.99
254.546	2457.61
254.616	2473.27
254.687	2475.75
254.757	2475.08
254.827	2468.61
254.898	2470.94
254.968	2470.37
255.039	2466.46
255.109	2473.61
255.18	2464.51
255.25	2446.61
255.321	2454.23
255.391	2441.61
255.461	2463.7
255.532	2434.55
255.602	2431.84
255.673	2415.27
255.743	2400.21
255.813	2377.23
255.884	2386.47
255.954	2397.17
256.024	2409.12
256.095	2405.46
256.165	2392.85
256.235	2397.56
256.306	2391.95
256.376	2402.23
256.446	2411.52
256.517	2417.75
256.587	2424.47
256.657	2426.23
256.728	2427.09
256.798	2424.85
256.868	2423.47
256.938	2413.47
257.009	2426.08
257.079	2433.65
257.149	2456.55
257.219	2435.55
257.29	2442.4
257.36	2420.84
257.43	2428.03
257.5	2406.76
257.571	2400.62
257.641	2407.42
257.711	2396.56
257.781	2402.56
257.852	2402.7
257.922	2376.66
257.992	2374.28
258.062	2372.09
258.132	2378.57
258.202	2376.62
258.273	2376.57
258.343	2390.24
258.413	2379.1
258.483	2377.15
258.553	2362.34
258.623	2352.53
258.693	2357.1
258.764	2370.57
258.834	2387.27
258.904	2387.03
258.974	2379.32
259.044	2374.85
259.114	2378.33
259.184	2378.61
259.254	2373.95
259.324	2354.76
259.394	2363.04
259.464	2375.42
259.535	2369.42
259.605	2359.66
259.675	2351.62
259.745	2354.91
259.815	2339.91
259.885	2332.92
259.955	2354.69
260.025	2344.7
260.095	2342.03
260.165	2346.51
260.235	2361.56
260.305	2352.8
260.375	2338.33
260.445	2361.36
260.515	2379.07
260.585	2387.88
260.655	2385.02
260.725	2395.26
260.795	2402.63
260.865	2422.39
260.934	2412.35
261.004	2422.78
261.074	2424.25
261.144	2440
261.214	2449.33
261.284	2450.71
261.354	2464.47
261.424	2453.98
261.494	2474.82
261.564	2472.2
261.634	2476.25
261.703	2452.21
261.773	2458.39
261.843	2465.06
261.913	2462.01
261.983	2442.78
262.053	2446.49
262.123	2443.25
262.192	2428.69
262.262	2438.07
262.332	2421.55
262.402	2426.45
262.472	2419.78
262.541	2399.66
262.611	2407.71
262.681	2394.52
262.751	2402.99
262.821	2395.76
262.89	2381.75
262.96	2385.32
263.03	2404.8
263.1	2410.66
263.169	2412.56
263.239	2416.9
263.309	2433.71
263.379	2435.85
263.448	2437.8
263.518	2437.18
263.588	2438.18
263.657	2455.7
263.727	2460.7
263.797	2458.56
263.867	2455.32
263.936	2438.52
264.006	2449.84
264.076	2442.98
264.145	2438.37
264.215	2426.32
264.285	2436.84
264.354	2416.95
264.424	2406.05
264.494	2383.86
264.563	2373.48
264.633	2391.62
264.702	2391.52
264.772	2371.52
264.842	2363.24
264.911	2365.9
264.981	2353.47
265.05	2351.85
265.12	2342.48
265.19	2339.9
265.259	2348.19
265.329	2351.47
265.398	2352.85
265.468	2371.94
265.537	2365.9
265.607	2371.8
265.676	2380.08
265.746	2378.41
265.815	2392.54
265.885	2389.55
265.955	2379.32
266.024	2374.89
266.094	2351.04
266.163	2361.9
266.232	2373.42
266.302	2370.09
266.371	2371.85
266.441	2370.09
266.51	2377.09
266.58	2372.47
266.649	2360.28
266.719	2366.42
266.788	2367.61
266.858	2384.61
266.927	2362.19
266.996	2365.42
267.066	2368.18
267.135	2354.95
267.205	2364.29
267.274	2364.95
267.343	2375.95
267.413	2377.85
267.482	2386.28
267.552	2398.03
267.621	2378.51
267.69	2359.76
267.76	2362.99
267.829	2365.32
267.898	2363.85
267.968	2353.62
268.037	2359.8
268.106	2369.28
268.176	2353.85
268.245	2349.23
268.314	2341.19
268.384	2351.7
268.453	2348.42
268.522	2346.28
268.592	2358.55
268.661	2344.41
268.73	2346.7
268.799	2335.8
268.869	2351.22
268.938	2333.56
269.007	2324.23
269.076	2324.04
269.146	2333.61
269.215	2333.99
269.284	2347.37
269.353	2341.42
269.422	2334.67
269.492	2326.72
269.561	2297.22
269.63	2301.64
269.699	2294.45
269.768	2293.22
269.838	2292.12
269.907	2296.83
269.976	2282.32
270.045	2259.44
270.114	2264.86
270.183	2257.15
270.253	2259.91
270.322	2239.6
270.391	2241.97
270.46	2254.25
270.529	2261.01
270.598	2262.39
270.667	2258.73
270.736	2241.3
270.806	2240.73
270.875	2252.39
270.944	2250.53
271.013	2276.65
271.082	2275.89
271.151	2279.41
271.22	2260.29
271.289	2257.77
271.358	2250.53
271.427	2254.34
271.496	2256.96
271.565	2246.91
271.634	2245.44
271.703	2249.86
271.772	2260.28
271.841	2255.14
271.91	2238.54
271.979	2238.54
272.048	2222.26
272.117	2228.4
272.186	2219.26
272.255	2228.64
272.324	2230.93
272.393	2230.12
272.462	2220.07
272.531	2216.98
272.6	2211.12
272.669	2221.78
272.738	2216.83
272.807	2219.83
272.876	2205.85
272.945	2233.97
273.013	2242.3
273.082	2254.1
273.151	2239.73
273.22	2242.73
273.289	2239.5
273.358	2254.58
273.427	2244.83
273.496	2254.44
273.564	2256.2
273.633	2264.76
273.702	2249.25
273.771	2245.49
273.84	2246.73
273.909	2250.68
273.977	2253.48
274.046	2249.11
274.115	2257.82
274.184	2246.16
274.253	2241.83
274.322	2258
274.39	2232.02
274.459	2222.45
274.528	2197.91
274.597	2195.81
274.665	2193
274.734	2202.61
274.803	2196.66
274.872	2193.95
274.94	2181.01
275.009	2232.11
275.078	2220.08
275.147	2223.07
275.215	2221.6
275.284	2230.21
275.353	2220.93
275.421	2201.38
275.49	2217.37
275.559	2206.66
275.627	2205.47
275.696	2203.67
275.765	2204.76
275.833	2199.01
275.902	2199.91
275.971	2213.42
276.039	2232.26
276.108	2235.31
276.177	2237.97
276.245	2226.41
276.314	2224.94
276.383	2233.88
276.451	2176.26
276.52	2183.39
276.588	2193.48
276.657	2198.72
276.725	2191.39
276.794	2194.96
276.863	2207.61
276.931	2187.96
277	2201.38
277.068	2213.07
277.137	2228.68
277.205	2225.73
277.274	2246.57
277.342	2256.99
277.411	2239.59
277.48	2226.12
277.548	2220.93
277.617	2220.31
277.685	2217.37
277.754	2223.5
277.822	2216.8
277.89	2230.55
277.959	2223.27
278.027	2209.43
278.096	2197.96
278.164	2222.48
278.233	2213.96
278.301	2203.98
278.37	2212.16
278.438	2198.31
278.507	2199.31
278.575	2178.94
278.643	2176.99
278.712	2156.96
278.78	2144.97
278.849	2157.43
278.917	2168.52
278.985	2163.9
279.054	2165.66
279.122	2177.32
279.191	2176.94
279.259	2175.75
279.327	2157.47
279.396	2174.79
279.464	2169.65
279.532	2177.55
279.601	2173.22
279.669	2171.65
279.737	2184.44
279.806	2188.2
279.874	2196.63
279.942	2193.77
280.011	2188.73
280.079	2195.54
280.147	2212.04
280.215	2215.09
280.284	2212.23
280.352	2196.86
280.42	2203.57
280.488	2194.34
280.557	2188.96
280.625	2191.3
280.693	2189.58
280.761	2195.72
280.83	2181.64
280.898	2194.86
280.966	2176.93
281.034	2146.8
281.102	2134.3
281.171	2126.45
281.239	2130.5
281.307	2127.12
281.375	2120.6
281.443	2140.92
281.512	2135.87
281.58	2142.39
281.648	2128.08
281.716	2125.98
281.784	2125.6
281.852	2120.18
281.92	2117.94
281.989	2125.94
282.057	2108.05
282.125	2154.38
282.193	2147.72
282.261	2144.39
282.329	2138.92
282.397	2142.58
282.465	2144.15
282.533	2159.51
282.601	2150.38
282.67	2131.68
282.738	2118.65
282.806	2125.88
282.874	2113.79
282.942	2118.98
283.01	2114.45
283.078	2119.92
283.146	2113.31
283.214	2121.21
283.282	2121.78
283.35	2137.15
283.418	2128.02
283.486	2136.29
283.554	2090.58
283.622	2090.67
283.69	2090.06
283.758	2084.68
283.826	2090.86
283.894	2100.81
283.962	2119.89
284.03	2132.78
284.098	2132.54
284.165	2128.12
284.233	2125.93
284.301	2120.75
284.369	2109.85
284.437	2098.67
284.505	2093.01
284.573	2110.28
284.641	2100.1
284.709	2107.95
284.777	2089.53
284.845	2098
284.912	2096.86
284.98	2101.71
285.048	2095.67
285.116	2100.14
285.184	2112.18
285.252	2108.71
285.319	2093.82
285.387	2081.49
285.455	2067.6
285.523	2073.17
285.591	2072.88
285.659	2074.03
285.726	2084.35
285.794	2071.84
285.862	2068.8
285.93	2073.94
285.997	2068.61
286.065	2067.32
286.133	2059.47
286.201	2059.04
286.269	2049.24
286.336	2046.63
286.404	2041.78
286.472	2050.43
286.539	2032.23
286.607	2017.05
286.675	2020.57
286.743	2027.94
286.81	2025.47
286.878	2040.4
286.946	2034.6
287.013	2036.45
287.081	2036.45
287.149	2021.85
287.216	2038.97
287.284	2035.93
287.352	2032.93
287.419	2032.03
287.487	2042.3
287.555	2043.54
287.622	2040.59
287.69	2041.06
287.758	2049.15
287.825	2045.44
287.893	2035.03
287.96	2040.4
288.028	2048.38
288.096	2047.86
288.163	2049.34
288.231	2036.16
288.298	2031.45
288.366	2042.11
288.433	2036.31
288.501	2027.8
288.569	2032.46
288.636	2023.04
288.704	2030.22
288.771	2033.45
288.839	2019.43
288.906	2011.15
288.974	2017.62
289.041	2009.5
289.109	1997.13
289.176	2000.32
289.244	1998.42
289.311	2008.6
289.379	2015.68
289.446	2013.87
289.514	2009.07
289.581	2005.12
289.649	2005.08
289.716	2003.93
289.783	1991.47
289.851	2006.21
289.918	2002.26
289.986	2005.17
290.053	2003.93
290.121	2001.84
290.188	1998.94
290.255	2022.91
290.323	2015.49
290.39	2002.31
290.458	2006.02
290.525	2014.34
290.592	2002.73
290.66	2001.02
290.727	1988.13
290.794	1992.36
290.862	1990.27
290.929	1990.32
290.996	1984.14
291.064	1985.94
291.131	1988.51
291.198	1994.55
291.266	1986.8
291.333	1984.62
291.4	1983.47
291.468	1995.65
291.535	1985.43
291.602	1984.29
291.669	1971.01
291.737	1967.69
291.804	1962.69
291.871	1972.25
291.938	1978.2
292.006	2002.42
292.073	2009.02
292.14	2013.4
292.207	2000.56
292.275	1993.48
292.342	1994.09
292.409	2013.69
292.476	2028.96
292.543	2015.98
292.611	2013.03
292.678	2021.59
292.745	2036.61
292.812	2038.32
292.879	2027.29
292.946	2027.29
293.014	2033.57
293.081	2035.42
293.148	2043.22
293.215	2053.06
293.282	2042.56
293.349	2042.03
293.416	2016.39
293.484	2025.09
293.551	2029.75
293.618	2041.73
293.685	2060.19
293.752	2048.87
293.819	2038.69
293.886	2022.52
293.953	2024.04
294.02	2025.23
294.087	2027.7
294.154	2016.05
294.221	2025.04
294.288	2022.9
294.356	2036.46
294.423	2037.69
294.49	2026.42
294.557	2032.65
294.624	2018.82
294.691	2032.65
294.758	2029.18
294.825	2028.85
294.892	2013.2
294.959	2006.64
295.026	2008.16
295.093	1999.08
295.16	1997.22
295.226	1992.94
295.293	2012.78
295.36	2011.02
295.427	2016.82
295.494	2022.91
295.561	2027.38
295.628	2041.86
295.695	2052.03
295.762	2047.75
295.829	2051.23
295.896	2062.49
295.963	2066.44
296.03	2071.53
296.096	2071.62
296.163	2077.28
296.23	2087.7
296.297	2097.26
296.364	2092.41
296.431	2090.46
296.498	2081.56
296.564	2098.63
296.631	2096.4
296.698	2077.8
296.765	2092.35
296.832	2078.94
296.899	2057.54
296.965	2069.33
297.032	2046.87
297.099	2056.1
297.166	2056.38
297.233	2044.82
297.299	2030.56
297.366	2026.09
297.433	2024.95
297.5	2027.61
297.566	2023.48
297.633	2016.96
297.7	2012.82
297.767	2006.36
297.833	2006.6
297.9	2004.89
297.967	1986.16
298.033	1994.67
298.1	2016.98
298.167	2005.66
298.234	2006.28
298.3	2015.27
298.367	2004.37
298.434	2008.56
298.5	1994.72
298.567	1984.92
298.634	1981.69
298.7	1996.95
298.767	1994.19
298.834	2001.37
298.9	1991.15
298.967	1978.02
299.033	1983.78
299.1	1994.05
299.167	2004.51
299.233	1998.04
299.3	2007.41
299.366	2022.14
299.433	2031.04
299.5	2001.55
299.566	2002.55
299.633	2015.96
299.699	2022.33
299.766	2016.91
299.832	2015.29
299.899	2019.48
299.965	2028.89
300.032	2021.57
300.099	2022.24
300.165	2025.47
300.232	2017.77
300.298	2016.2
300.365	2029.32
300.431	2026.18
300.498	2018.24
300.564	2022.85
300.631	2030.13
300.697	2040.55
300.763	2035.94
300.83	2029.85
300.896	2040.73
300.963	2048.67
301.029	2048.63
301.096	2047.2
301.162	2056.76
301.229	2053.52
301.295	2042.25
301.361	2045.87
301.428	2051.24
301.494	2036.36
301.561	2034.22
301.627	2034.31
301.693	2036.5
301.76	2036.5
301.826	2032.07
301.892	2040.73
301.959	2048.06
302.025	2045.44
302.092	2035.45
302.158	2039.97
302.224	2042.87
302.291	2033.93
302.357	2026.18
302.423	2017.57
302.49	2009.68
302.556	2023.14
302.622	2020.29
302.688	2031.37
302.755	2039.55
302.821	2045.26
302.887	2056.33
302.954	2055.14
303.02	2064.61
303.086	2068.74
303.152	2066.08
303.219	2062.94
303.285	2064.56
303.351	2067.65
303.417	2071.27
303.483	2062.95
303.55	2057.24
303.616	2056.62
303.682	2057.57
303.748	2052.3
303.815	2067.14
303.881	2076.94
303.947	2059.38
304.013	2061.57
304.079	2052.15
304.145	2032.84
304.212	2030.47
304.278	2025
304.344	2022.72
304.41	2013.2
304.476	2005.5
304.542	2003.84
304.608	2009.45
304.674	1993.52
304.741	1990.57
304.807	1991.66
304.873	1998.7
304.939	2014.49
305.005	1995.56
305.071	1994.66
305.137	1999.03
305.203	1977.86
305.269	1976.34
305.335	1987.23
305.401	1984.86
305.467	1989.09
305.533	2002.74
305.599	2013.86
305.666	2023.28
305.732	2028.89
305.798	2040.4
305.864	2066.33
305.93	2072.13
305.996	2074.13
306.062	2079.45
306.128	2076.31
306.194	2067.56
306.259	2070.23
306.325	2062.95
306.391	2075.74
306.457	2087.53
306.523	2094.42
306.589	2119.3
306.655	2117.3
306.721	2107.36
306.787	2099.85
306.853	2114.17
306.919	2102.57
306.985	2096.95
307.051	2093.82
307.117	2088.82
307.183	2090.82
307.248	2065.84
307.314	2072.31
307.38	2077.5
307.446	2086.15
307.512	2081.3
307.578	2089.15
307.644	2089.44
307.709	2094.38
307.775	2097.38
307.841	2095.9
307.907	2098.33
307.973	2085.82
308.039	2088.57
308.104	2097.23
308.17	2102.13
308.236	2089.24
308.302	2094.18
308.368	2088.85
308.433	2089.38
308.499	2087.81
308.565	2079.15
308.631	2088
308.696	2069.07
308.762	2060.7
308.828	2060.17
308.894	2048.91
308.959	2033.45
309.025	2027.56
309.091	2025.65
309.156	2021.61
309.222	2026.94
309.288	2019
309.354	2002.55
309.419	2003.26
309.485	1990.61
309.551	2001.22
309.616	1993.32
309.682	1994.85
309.748	1991.76
309.813	1992.9
309.879	1989.47
309.945	1982.77
310.01	1980.58
310.076	1991.47
310.141	1991.33
310.207	1983.53
310.273	1991.56
310.338	2001.64
310.404	1991.56
310.469	1985.9
310.535	1981.24
310.601	1965.41
310.666	1975.49
310.732	1989.7
310.797	1980.57
310.863	1976.91
310.928	1970.82
310.994	1980.67
311.059	1981.62
311.125	1985.8
311.191	1996.51
311.256	1990.9
311.322	1997.93
311.387	1986.14
311.453	2339.78
311.518	2317.02
311.584	2318.82
311.649	2326.34
311.715	2319.35
311.78	2327.24
311.846	2322.2
311.911	2331.19
311.976	2335.99
312.042	2324.53
312.107	2311.12
312.173	2307.27
312.238	2307.94
312.304	2309.89
312.369	2302.66
312.434	2295.76
312.5	2293.1
312.565	2270.13
312.631	2281.11
312.696	2277.64
312.761	2283.72
312.827	1927.33
312.892	1971.07
312.958	1970.27
313.023	1968.98
313.088	1973.26
313.154	1962.85
313.219	1961.33
313.284	1956.1
313.35	1957.91
313.415	1953.29
313.48	1955.34
313.546	1964.42
313.611	1979.26
313.676	1971.84
313.741	1968.13
313.807	1977.83
313.872	1984.25
313.937	1993.33
314.003	2006.08
314.068	2010.74
314.133	2018.73
314.198	2013.5
314.264	1996.65
314.329	1993.47
314.394	1995.03
314.459	1992.42
314.525	2017
314.59	2016.76
314.655	2010.87
314.72	2019.76
314.785	2027.84
314.851	2027.75
314.916	2015.34
314.981	2002.5
315.046	2000.98
315.111	1997.37
315.176	1990.85
315.242	1996.32
315.307	2000.12
315.372	1984.14
315.437	1979.72
315.502	1975.15
315.567	1988.04
315.632	1979.72
315.698	1986.52
315.763	1988.28
315.828	1991.04
315.893	1993.56
315.958	2002.45
316.023	2005.35
316.088	1999.12
316.153	1990.85
316.218	1999.03
316.283	2002.59
316.348	2005.16
316.413	2021.33
316.479	2028.65
316.544	2020.47
316.609	2018.48
316.674	2007.49
316.739	2003.02
316.804	2000.27
316.869	1994.75
316.934	1989.42
316.999	1993.94
317.064	1979.25
317.129	1970.21
317.194	1968.64
317.259	1955.94
317.324	1937.97
317.389	1928.28
317.454	1924.66
317.518	1925.85
317.583	1938.12
317.648	1950.49
317.713	1952.53
317.778	1930.94
317.843	1937.89
317.908	1938.79
317.973	1934.98
318.038	1945.82
318.103	1946.77
318.168	1954.38
318.233	1962.66
318.297	1951.48
318.362	1953.86
318.427	1955.52
318.492	1966.65
318.557	1959.1
318.622	1969.66
318.687	1983.92
318.751	1986.77
318.816	1992.81
318.881	1997.7
318.946	1980.77
319.011	1970.4
319.075	1965.98
319.14	1970.21
319.205	1964.89
319.27	1967.79
319.335	1963.51
319.399	1959.42
319.464	1968.78
319.529	1956.95
319.594	1955.8
319.658	1965.98
319.723	1959.75
319.788	1965.6
319.853	1951.38
319.917	1961.12
319.982	1945.19
320.047	1946.28
320.112	1955.46
320.176	1943.43
320.241	1950.85
320.306	1960.45
320.37	1956.27
320.435	1966.11
320.5	1979.19
320.564	1979.14
320.629	1978.1
320.694	1985.32
320.758	1983.38
320.823	1977.57
320.888	1986.32
320.952	1976.1
321.017	1972.2
321.082	1972.49
321.146	1978.05
321.211	1983.33
321.275	1980.66
321.34	1977.72
321.405	1972.87
321.469	1963.79
321.534	1964.31
321.598	1949.9
321.663	1956.09
321.727	1966.22
321.792	1956.47
321.857	1946.86
321.921	1945.24
321.986	1941.06
322.05	1922.14
322.115	1922.9
322.179	1918.72
322.244	1903.84
322.308	1910.02
322.373	1903.65
322.437	1901.65
322.502	1910.5
322.566	1902.42
322.631	1905.61
322.695	1905.8
322.76	1900.28
322.824	1907.65
322.889	1901.28
322.953	1894.25
323.018	1866.82
323.082	1840.92
323.146	1828.89
323.211	1816.2
323.275	1809.64
323.34	1800.38
323.404	1801.66
323.468	1794.58
323.533	1787.78
323.597	1779.61
323.662	1763.55
323.726	1764.83
323.79	1753.67
323.855	1725.8
323.919	1714.97
323.983	1703.85
324.048	1686.79
324.112	1881.24
324.177	1862.99
324.241	1781
324.305	1701.62
324.37	1622.39
324.434	1549.99
324.498	1545.17
324.562	1536.7
324.627	1522.29
324.691	1517.81
324.755	1506.53
324.82	1486.24
324.884	1471.52
324.948	1468.82
325.012	1456.52
325.077	1420.48
